?
Axis	Energy	Elements=	951

C:\Users\AG Wittstock\Documents\Iza\06_27.01.2017\PET_03\Polyanalyse.DATA\C1s Scan.VGD





Binding Energy (E)				C1s Scan A	C1s Scan B	C1s Scan C	C1s Scan D	Backgnd.	Envelope	Residuals	
eV		Counts / s  (Residuals × 2)		Counts / s  (Residuals × 2)	Counts / s  (Residuals × 2)	Counts / s  (Residuals × 2)	Counts / s  (Residuals × 2)	Counts / s  (Residuals × 2)	Counts / s  (Residuals × 2)	Counts / s  (Residuals × 2)
298.000		2042.82		0.000000	0.000000	0.000000	0.000000	0.000000	2042.93	-0.113207	
297.980		1957.93		2026.48	2026.48	2026.48	2026.60	2026.48	2026.60	-68.6789	
297.960		2056.25		2023.12	2023.12	2023.12	2023.24	2023.12	2023.24	33.0066	
297.940		2045.68		2019.44	2019.44	2019.44	2019.57	2019.44	2019.57	26.1014	
297.920		2058.25		2015.61	2015.61	2015.61	2015.76	2015.61	2015.76	42.4953	
297.900		1967.93		2015.39	2015.39	2015.39	2015.55	2015.39	2015.55	-47.6187	
297.880		2032.81		2011.77	2011.77	2011.77	2011.94	2011.77	2011.94	20.8730	
297.860		2077.12		2007.95	2007.95	2007.95	2008.13	2007.95	2008.13	68.9895	
297.840		2133.71		2003.56	2003.56	2003.56	2003.74	2003.56	2003.74	129.966	
297.820		2037.67		2001.37	2001.37	2001.37	2001.57	2001.37	2001.57	36.1004	
297.800		2036.53		2001.17	2001.17	2001.17	2001.38	2001.17	2001.38	35.1514	
297.780		2063.40		1997.38	1997.38	1997.38	1997.61	1997.38	1997.61	65.7915	
297.760		1932.49		1995.10	1995.10	1995.10	1995.34	1995.10	1995.34	-62.8535	
297.740		1928.20		1992.49	1992.49	1992.49	1992.74	1992.49	1992.74	-64.5413	
297.720		1995.66		1992.05	1992.05	1992.05	1992.31	1992.05	1992.31	3.34224	
297.700		1967.93		1989.59	1989.59	1989.59	1989.88	1989.59	1989.88	-21.9451	
297.680		1958.21		1986.33	1986.33	1986.33	1986.63	1986.33	1986.63	-28.4191	
297.660		2087.98		1983.12	1983.12	1983.12	1983.44	1983.12	1983.44	104.538	
297.640		1959.64		1979.48	1979.48	1979.48	1979.82	1979.48	1979.82	-20.1769	
297.620		1962.21		1972.87	1972.87	1972.87	1973.22	1972.87	1973.22	-11.0050	
297.600		1869.89		1965.29	1965.29	1965.29	1965.66	1965.29	1965.66	-95.7732	
297.580		1899.33		1958.74	1958.74	1958.74	1959.13	1958.74	1959.13	-59.7998	
297.560		2012.81		1954.65	1954.65	1954.65	1955.06	1954.65	1955.06	57.7442	
297.540		1907.91		1949.27	1949.27	1949.27	1949.70	1949.27	1949.70	-41.7961	
297.520		1945.35		1943.72	1943.72	1943.72	1944.18	1943.72	1944.18	1.17052	
297.500		1917.34		1940.59	1940.59	1940.59	1941.07	1940.59	1941.07	-23.7308	
297.480		2016.52		1937.18	1937.18	1937.18	1937.69	1937.18	1937.69	78.8354	
297.460		2017.09		1934.83	1934.83	1934.83	1935.36	1934.83	1935.36	81.7307	
297.440		1948.21		1934.03	1934.03	1934.03	1934.59	1934.03	1934.59	13.6212	
297.420		1979.65		1933.80	1933.80	1933.80	1934.38	1933.80	1934.38	45.2664	
297.400		1993.37		1932.36	1932.36	1932.36	1932.97	1932.36	1932.97	60.3969	
297.380		1913.05		1930.89	1930.89	1930.89	1931.53	1930.89	1931.53	-18.4837	
297.360		1855.31		1928.99	1928.99	1928.99	1929.66	1928.99	1929.66	-74.3476	
297.340		1871.03		1926.33	1926.33	1926.33	1927.03	1926.33	1927.03	-55.9997	
297.320		1993.65		1922.89	1922.89	1922.89	1923.62	1922.89	1923.62	70.0310	
297.300		1922.48		1919.67	1919.67	1919.67	1920.44	1919.67	1920.44	2.04593	
297.280		1836.16		1917.07	1917.07	1917.07	1917.87	1917.07	1917.87	-81.7090	
297.260		1876.18		1913.85	1913.85	1913.85	1914.68	1913.85	1914.68	-38.5034	
297.240		1811.01		1909.99	1909.99	1909.99	1910.86	1909.99	1910.86	-99.8493	
297.220		1879.89		1905.40	1905.40	1905.40	1906.30	1905.40	1906.30	-26.4079	
297.200		1916.48		1901.91	1901.91	1901.91	1902.86	1901.91	1902.86	13.6255	
297.180		2032.53		1900.39	1900.39	1900.39	1901.38	1900.39	1901.38	131.150	
297.160		2045.68		1898.83	1898.83	1898.83	1899.85	1898.83	1899.85	145.824	
297.140		1946.78		1898.07	1898.07	1898.07	1899.14	1898.07	1899.14	47.6421	
297.120		1964.21		1897.78	1897.78	1897.78	1898.89	1897.78	1898.89	65.3288	
297.100		1859.32		1896.40	1896.40	1896.40	1897.55	1896.40	1897.55	-38.2369	
297.080		1796.72		1893.59	1893.59	1893.59	1894.78	1893.59	1894.78	-98.0607	
297.060		1885.04		1890.64	1890.64	1890.64	1891.87	1890.64	1891.87	-6.83507	
297.040		1889.33		1888.33	1888.33	1888.33	1889.61	1888.33	1889.61	-0.280203	
297.020		1917.05		1885.81	1885.81	1885.81	1887.14	1885.81	1887.14	29.9094	
297.000		1887.33		1882.97	1882.97	1882.97	1884.35	1882.97	1884.35	2.98041	
296.980		1833.88		1880.17	1880.17	1880.17	1881.59	1880.17	1881.59	-47.7159	
296.960		1793.00		1875.48	1875.48	1875.48	1876.95	1875.48	1876.95	-83.9459	
296.940		1919.91		1871.17	1871.17	1871.17	1872.70	1871.17	1872.70	47.2130	
296.920		1885.61		1866.73	1866.73	1866.73	1868.31	1866.73	1868.31	17.3021	
296.900		1920.20		1863.15	1863.15	1863.15	1864.78	1863.15	1864.78	55.4182	
296.880		1965.07		1860.41	1860.41	1860.41	1862.09	1860.41	1862.09	102.983	
296.860		1908.76		1858.90	1858.90	1858.90	1860.63	1858.90	1860.63	48.1303	
296.840		1806.72		1857.41	1857.41	1857.41	1859.20	1857.41	1859.20	-52.4767	
296.820		1873.32		1855.10	1855.10	1855.10	1856.94	1855.10	1856.94	16.3760	
296.800		1869.89		1852.06	1852.06	1852.06	1853.96	1852.06	1853.96	15.9269	
296.780		1788.14		1848.92	1848.92	1848.92	1850.87	1848.92	1850.87	-62.7294	
296.760		1795.58		1846.38	1846.38	1846.38	1848.40	1846.38	1848.40	-52.8223	
296.740		1863.60		1844.93	1844.93	1844.93	1847.00	1844.93	1847.00	16.5987	
296.720		1742.70		1844.37	1844.37	1844.37	1846.50	1844.37	1846.50	-103.807	
296.700		1825.30		1844.35	1844.35	1844.35	1846.54	1844.35	1846.54	-21.2358	
296.680		1873.32		1843.67	1843.67	1843.67	1845.92	1843.67	1845.92	27.3996	
296.660		1905.91		1843.37	1843.37	1843.37	1845.69	1843.37	1845.69	60.2196	
296.640		1797.29		1842.92	1842.92	1842.92	1845.29	1842.92	1845.29	-48.0018	
296.620		1921.34		1841.93	1841.93	1841.93	1844.37	1841.93	1844.37	76.9744	
296.600		1875.04		1841.19	1841.19	1841.19	1843.68	1841.19	1843.68	31.3520	
296.580		1792.15		1841.15	1841.15	1841.15	1843.71	1841.15	1843.71	-51.5628	
296.560		1827.30		1840.84	1840.84	1840.84	1843.46	1840.84	1843.46	-16.1611	
296.540		1783.00		1840.71	1840.71	1840.71	1843.40	1840.71	1843.40	-60.4006	
296.520		1793.00		1840.57	1840.57	1840.57	1843.32	1840.57	1843.32	-50.3194	
296.500		1798.15		1840.40	1840.40	1840.40	1843.22	1840.40	1843.22	-45.0685	
296.480		1785.00		1840.21	1840.21	1840.21	1843.09	1840.21	1843.09	-58.0888	
296.460		1876.46		1840.04	1840.04	1840.04	1842.99	1840.04	1842.99	33.4767	
296.440		1853.31		1839.76	1839.76	1839.76	1842.77	1839.76	1842.77	10.5446	
296.420		1898.47		1839.41	1839.41	1839.41	1842.49	1839.41	1842.49	55.9849	
296.400		1979.36		1839.05	1839.05	1839.05	1842.20	1839.05	1842.20	137.165	
296.380		1910.48		1838.68	1838.68	1838.68	1841.89	1838.68	1841.89	68.5883	
296.360		1799.01		1838.08	1838.08	1838.08	1841.36	1838.08	1841.36	-42.3508	
296.340		1841.31		1837.52	1837.52	1837.52	1840.87	1837.52	1840.87	0.441822	
296.320		1825.87		1837.05	1837.05	1837.05	1840.46	1837.05	1840.46	-14.5844	
296.300		1872.18		1836.47	1836.47	1836.47	1839.95	1836.47	1839.95	32.2265	
296.280		1805.01		1835.81	1835.81	1835.81	1839.35	1835.81	1839.35	-34.3430	
296.260		1805.01		1835.11	1835.11	1835.11	1838.72	1835.11	1838.72	-33.7139	
296.240		1823.87		1834.40	1834.40	1834.40	1838.08	1834.40	1838.08	-14.2079	
296.220		1848.17		1833.60	1833.60	1833.60	1837.35	1833.60	1837.35	10.8196	
296.200		1868.75		1832.63	1832.63	1832.63	1836.44	1832.63	1836.44	32.3038	
296.180		1868.46		1831.64	1831.64	1831.64	1835.53	1831.64	1835.53	32.9357	
296.160		1906.19		1830.69	1830.69	1830.69	1834.64	1830.69	1834.64	71.5473	
296.140		2002.80		1829.72	1829.72	1829.72	1833.74	1829.72	1833.74	169.064	
296.120		1856.46		1828.84	1828.84	1828.84	1832.93	1828.84	1832.93	23.5308	
296.100		1774.14		1828.01	1828.01	1828.01	1832.16	1828.01	1832.16	-58.0222	
296.080		1869.32		1827.10	1827.10	1827.10	1831.32	1827.10	1831.32	37.9993	
296.060		1897.90		1826.18	1826.18	1826.18	1830.47	1826.18	1830.47	67.4298	
296.040		1788.14		1825.21	1825.21	1825.21	1829.57	1825.21	1829.57	-41.4217	
296.020		1781.00		1824.23	1824.23	1824.23	1828.66	1824.23	1828.66	-47.6602	
296.000		1863.03		1823.21	1823.21	1823.21	1827.71	1823.21	1827.71	35.3241	
295.980		1928.49		1822.12	1822.12	1822.12	1826.68	1822.12	1826.68	101.808	
295.960		1859.89		1820.92	1820.92	1820.92	1825.55	1820.92	1825.55	34.3396	
295.940		1788.43		1819.66	1819.66	1819.66	1824.35	1819.66	1824.35	-35.9238	
295.920		1893.33		1818.39	1818.39	1818.39	1823.16	1818.39	1823.16	70.1723	
295.900		1855.03		1817.12	1817.12	1817.12	1821.95	1817.12	1821.95	33.0796	
295.880		1838.16		1815.85	1815.85	1815.85	1820.75	1815.85	1820.75	17.4106	
295.860		1845.31		1814.74	1814.74	1814.74	1819.70	1814.74	1819.70	25.6051	
295.840		1819.58		1813.64	1813.64	1813.64	1818.68	1813.64	1818.68	0.908932	
295.820		1855.03		1812.42	1812.42	1812.42	1817.53	1812.42	1817.53	37.5019	
295.800		1842.45		1811.10	1811.10	1811.10	1816.27	1811.10	1816.27	26.1846	
295.780		1818.44		1809.77	1809.77	1809.77	1815.01	1809.77	1815.01	3.43322	
295.760		1850.45		1808.43	1808.43	1808.43	1813.73	1808.43	1813.73	36.7196	
295.740		1890.47		1806.92	1806.92	1806.92	1812.29	1806.92	1812.29	78.1798	
295.720		1875.89		1805.25	1805.25	1805.25	1810.69	1805.25	1810.69	65.1991	
295.700		1836.16		1803.55	1803.55	1803.55	1809.06	1803.55	1809.06	27.1025	
295.680		1843.59		1801.79	1801.79	1801.79	1807.37	1801.79	1807.37	36.2240	
295.660		1856.74		1799.95	1799.95	1799.95	1805.60	1799.95	1805.60	51.1410	
295.640		1823.30		1798.19	1798.19	1798.19	1803.91	1798.19	1803.91	19.3922	
295.620		1803.29		1796.46	1796.46	1796.46	1802.25	1796.46	1802.25	1.04393	
295.600		1861.32		1794.70	1794.70	1794.70	1800.55	1794.70	1800.55	60.7610	
295.580		1941.35		1792.83	1792.83	1792.83	1798.75	1792.83	1798.75	142.594	
295.560		1859.89		1790.90	1790.90	1790.90	1796.90	1790.90	1796.90	62.9848	
295.540		1766.14		1788.88	1788.88	1788.88	1794.95	1788.88	1794.95	-28.8180	
295.520		1911.34		1786.74	1786.74	1786.74	1792.89	1786.74	1792.89	118.451	
295.500		1972.22		1784.43	1784.43	1784.43	1790.65	1784.43	1790.65	181.571	
295.480		1921.34		1782.05	1782.05	1782.05	1788.33	1782.05	1788.33	133.010	
295.460		1871.03		1779.66	1779.66	1779.66	1786.02	1779.66	1786.02	85.0168	
295.440		1820.73		1777.27	1777.27	1777.27	1783.70	1777.27	1783.70	37.0275	
295.420		1772.14		1774.85	1774.85	1774.85	1781.35	1774.85	1781.35	-9.21541	
295.400		1777.00		1772.43	1772.43	1772.43	1779.00	1772.43	1779.00	-2.00753	
295.380		1827.30		1770.02	1770.02	1770.02	1776.67	1770.02	1776.67	50.6317	
295.360		1905.62		1767.55	1767.55	1767.55	1774.28	1767.55	1774.28	131.337	
295.340		1822.73		1765.01	1765.01	1765.01	1771.81	1765.01	1771.81	50.9185	
295.320		1902.48		1762.40	1762.40	1762.40	1769.28	1762.40	1769.28	133.197	
295.300		1909.62		1759.94	1759.94	1759.94	1766.90	1759.94	1766.90	142.722	
295.280		1934.49		1757.46	1757.46	1757.46	1764.50	1757.46	1764.50	169.993	
295.260		1872.18		1754.79	1754.79	1754.79	1761.91	1754.79	1761.91	110.270	
295.240		1830.45		1752.11	1752.11	1752.11	1759.31	1752.11	1759.31	71.1410	
295.220		1823.30		1749.56	1749.56	1749.56	1756.83	1749.56	1756.83	66.4675	
295.200		1811.01		1747.08	1747.08	1747.08	1754.44	1747.08	1754.44	56.5715	
295.180		1787.86		1744.58	1744.58	1744.58	1752.02	1744.58	1752.02	35.8402	
295.160		1785.29		1741.93	1741.93	1741.93	1749.46	1741.93	1749.46	35.8300	
295.140		1821.01		1739.20	1739.20	1739.20	1746.81	1739.20	1746.81	74.2069	
295.120		1829.30		1736.45	1736.45	1736.45	1744.14	1736.45	1744.14	85.1606	
295.100		1862.17		1733.70	1733.70	1733.70	1741.48	1733.70	1741.48	120.690	
295.080		1732.41		1731.11	1731.11	1731.11	1738.98	1731.11	1738.98	-6.57379	
295.060		1826.73		1728.52	1728.52	1728.52	1736.48	1728.52	1736.48	90.2486	
295.040		1892.19		1726.00	1726.00	1726.00	1734.05	1726.00	1734.05	158.131	
295.020		1864.46		1723.62	1723.62	1723.62	1731.77	1723.62	1731.77	132.695	
295.000		1785.29		1721.34	1721.34	1721.34	1729.58	1721.34	1729.58	55.7064	
294.980		1788.14		1719.12	1719.12	1719.12	1727.46	1719.12	1727.46	60.6863	
294.960		1841.59		1716.94	1716.94	1716.94	1725.37	1716.94	1725.37	116.222	
294.940		1904.19		1714.73	1714.73	1714.73	1723.26	1714.73	1723.26	180.933	
294.920		1798.72		1712.48	1712.48	1712.48	1721.11	1712.48	1721.11	77.6080	
294.900		1733.55		1710.13	1710.13	1710.13	1718.86	1710.13	1718.86	14.6899	
294.880		1761.85		1707.73	1707.73	1707.73	1716.56	1707.73	1716.56	45.2889	
294.860		1692.96		1705.38	1705.38	1705.38	1714.32	1705.38	1714.32	-21.3576	
294.840		1762.99		1703.17	1703.17	1703.17	1712.22	1703.17	1712.22	50.7748	
294.820		1776.71		1701.12	1701.12	1701.12	1710.27	1701.12	1710.27	66.4384	
294.800		1719.54		1699.09	1699.09	1699.09	1708.35	1699.09	1708.35	11.1990	
294.780		1781.57		1697.10	1697.10	1697.10	1706.47	1697.10	1706.47	75.0961	
294.760		1760.13		1695.24	1695.24	1695.24	1704.73	1695.24	1704.73	55.4024	
294.740		1747.56		1693.54	1693.54	1693.54	1703.14	1693.54	1703.14	44.4122	
294.720		1805.01		1691.77	1691.77	1691.77	1701.49	1691.77	1701.49	103.516	
294.700		1795.29		1689.98	1689.98	1689.98	1699.82	1689.98	1699.82	95.4674	
294.680		1843.59		1688.19	1688.19	1688.19	1698.16	1688.19	1698.16	145.437	
294.660		1786.43		1686.60	1686.60	1686.60	1696.68	1686.60	1696.68	89.7453	
294.640		1708.40		1685.06	1685.06	1685.06	1695.27	1685.06	1695.27	13.1244	
294.620		1649.23		1683.57	1683.57	1683.57	1693.91	1683.57	1693.91	-44.6838	
294.600		1658.66		1682.03	1682.03	1682.03	1692.51	1682.03	1692.51	-33.8452	
294.580		1672.95		1680.38	1680.38	1680.38	1690.99	1680.38	1690.99	-18.0339	
294.560		1731.84		1678.80	1678.80	1678.80	1689.55	1678.80	1689.55	42.2892	
294.540		1724.98		1677.39	1677.39	1677.39	1688.28	1677.39	1688.28	36.6955	
294.520		1672.10		1676.02	1676.02	1676.02	1687.06	1676.02	1687.06	-14.9610	
294.500		1815.58		1674.76	1674.76	1674.76	1685.94	1674.76	1685.94	129.642	
294.480		1769.85		1673.58	1673.58	1673.58	1684.91	1673.58	1684.91	84.9403	
294.460		1800.72		1672.45	1672.45	1672.45	1683.94	1672.45	1683.94	116.784	
294.440		1681.24		1671.45	1671.45	1671.45	1683.09	1671.45	1683.09	-1.84129	
294.420		1704.40		1670.57	1670.57	1670.57	1682.37	1670.57	1682.37	22.0285	
294.400		1652.38		1669.86	1669.86	1669.86	1681.82	1669.86	1681.82	-29.4437	
294.380		1779.85		1669.22	1669.22	1669.22	1681.35	1669.22	1681.35	98.5078	
294.360		1775.00		1668.62	1668.62	1668.62	1680.92	1668.62	1680.92	94.0735	
294.340		1654.95		1668.00	1668.00	1668.00	1680.48	1668.00	1680.48	-25.5315	
294.320		1573.20		1667.34	1667.34	1667.34	1680.00	1667.34	1680.00	-106.796	
294.300		1649.52		1666.68	1666.68	1666.68	1679.52	1666.68	1679.52	-30.0002	
294.280		1652.66		1666.04	1666.04	1666.04	1679.06	1666.04	1679.06	-26.3972	
294.260		1652.66		1665.43	1665.43	1665.43	1678.64	1665.43	1678.64	-25.9822	
294.240		1669.81		1664.79	1664.79	1664.79	1678.20	1664.79	1678.20	-8.38628	
294.220		1664.38		1664.26	1664.26	1664.26	1677.87	1664.26	1677.87	-13.4862	
294.200		1646.09		1663.81	1663.81	1663.81	1677.62	1663.81	1677.62	-31.5372	
294.180		1662.38		1663.46	1663.46	1663.46	1677.48	1663.46	1677.48	-15.1052	
294.160		1699.54		1663.14	1663.14	1663.14	1677.38	1663.14	1677.38	22.1538	
294.140		1652.09		1662.81	1662.81	1662.81	1677.27	1662.81	1677.27	-25.1820	
294.120		1658.38		1662.48	1662.48	1662.48	1677.18	1662.48	1677.18	-18.8004	
294.100		1688.10		1662.35	1662.35	1662.35	1677.28	1662.35	1677.28	10.8263	
294.080		1660.66		1662.27	1662.27	1662.27	1677.44	1662.27	1677.44	-16.7751	
294.060		1701.82		1662.10	1662.10	1662.10	1677.51	1662.10	1677.51	24.3102	
294.040		1672.67		1661.77	1661.77	1661.77	1677.43	1661.77	1677.43	-4.76467	
294.020		1694.68		1661.41	1661.41	1661.41	1677.33	1661.41	1677.33	17.3460	
294.000		1693.53		1661.10	1661.10	1661.10	1677.29	1661.10	1677.29	16.2431	
293.980		1676.38		1660.79	1660.79	1660.79	1677.26	1660.79	1677.26	-0.872681	
293.960		1695.82		1660.49	1660.49	1660.49	1677.24	1660.49	1677.24	18.5842	
293.940		1641.23		1660.29	1660.29	1660.29	1677.32	1660.29	1677.32	-36.0946	
293.920		1713.26		1660.12	1660.12	1660.12	1677.45	1660.12	1677.45	35.8045	
293.900		1632.94		1659.83	1659.83	1659.83	1677.47	1659.83	1677.47	-44.5343	
293.880		1589.21		1659.58	1659.58	1659.58	1677.53	1659.58	1677.53	-88.3257	
293.860		1716.69		1659.25	1659.25	1659.25	1677.53	1659.25	1677.53	39.1551	
293.840		1745.56		1658.90	1658.90	1658.90	1677.52	1658.90	1677.52	68.0344	
293.820		1726.98		1658.56	1658.56	1658.56	1677.52	1658.56	1677.52	49.4589	
293.800		1671.24		1658.21	1658.21	1658.21	1677.52	1658.21	1677.52	-6.28331	
293.780		1591.78		1657.92	1657.92	1657.92	1677.60	1657.92	1677.60	-85.8227	
293.760		1647.23		1657.68	1657.68	1657.68	1677.75	1657.68	1677.75	-30.5163	
293.740		1657.81		1657.50	1657.50	1657.50	1677.95	1657.50	1677.95	-20.1446	
293.720		1561.77		1657.37	1657.37	1657.37	1678.23	1657.37	1678.23	-116.458	
293.700		1606.64		1657.33	1657.33	1657.33	1678.60	1657.33	1678.60	-71.9616	
293.680		1774.14		1657.30	1657.30	1657.30	1679.00	1657.30	1679.00	95.1426	
293.660		1664.67		1657.26	1657.26	1657.26	1679.40	1657.26	1679.40	-14.7337	
293.640		1715.83		1657.22	1657.22	1657.22	1679.82	1657.22	1679.82	36.0103	
293.620		1670.67		1657.18	1657.18	1657.18	1680.25	1657.18	1680.25	-9.58510	
293.600		1684.10		1657.14	1657.14	1657.14	1680.70	1657.14	1680.70	3.40098	
293.580		1655.23		1657.10	1657.10	1657.10	1681.17	1657.10	1681.17	-25.9328	
293.560		1633.51		1657.06	1657.06	1657.06	1681.65	1657.06	1681.65	-48.1391	
293.540		1614.07		1657.02	1657.02	1657.02	1682.15	1657.02	1682.15	-68.0775	
293.520		1643.23		1656.98	1656.98	1656.98	1682.67	1656.98	1682.67	-39.4440	
293.500		1631.80		1656.94	1656.94	1656.94	1683.21	1656.94	1683.21	-51.4166	
293.480		1548.91		1656.90	1656.90	1656.90	1683.77	1656.90	1683.77	-134.866	
293.460		1718.40		1656.86	1656.86	1656.86	1684.35	1656.86	1684.35	34.0504	
293.440		1718.69		1656.82	1656.82	1656.82	1684.95	1656.82	1684.95	33.7359	
293.420		1671.81		1656.78	1656.78	1656.78	1685.57	1656.78	1685.57	-13.7623	
293.400		1633.80		1656.73	1656.73	1656.73	1686.22	1656.73	1686.22	-52.4259	
293.380		1727.26		1656.69	1656.69	1656.69	1686.89	1656.69	1686.89	40.3676	
293.360		1677.81		1656.65	1656.65	1656.65	1687.59	1656.65	1687.59	-9.78030	
293.340		1690.10		1656.61	1656.61	1656.61	1688.32	1656.61	1688.32	1.78490	
293.320		1684.10		1656.56	1656.56	1656.56	1689.07	1656.56	1689.07	-4.96943	
293.300		1654.66		1656.52	1656.52	1656.52	1689.85	1656.52	1689.85	-35.1900	
293.280		1652.09		1656.47	1656.47	1656.47	1690.66	1656.47	1690.66	-38.5729	
293.260		1678.67		1656.43	1656.43	1656.43	1691.50	1656.43	1691.50	-12.8310	
293.240		1685.82		1656.38	1656.38	1656.38	1692.37	1656.38	1692.37	-6.55755	
293.220		1647.52		1656.33	1656.33	1656.33	1693.28	1656.33	1693.28	-45.7629	
293.200		1661.24		1656.27	1656.27	1656.27	1694.21	1656.27	1694.22	-32.9793	
293.180		1658.09		1656.22	1656.22	1656.22	1695.19	1656.22	1695.19	-37.0970	
293.160		1707.25		1656.17	1656.17	1656.17	1696.20	1656.17	1696.20	11.0537	
293.140		1651.52		1656.11	1656.11	1656.11	1697.25	1656.11	1697.25	-45.7333	
293.120		1730.98		1656.06	1656.06	1656.06	1698.34	1656.06	1698.34	32.6382	
293.100		1771.28		1656.00	1656.00	1656.00	1699.47	1656.00	1699.47	71.8089	
293.080		1706.68		1655.94	1655.94	1655.94	1700.64	1655.94	1700.65	6.03763	
293.060		1637.80		1655.88	1655.88	1655.89	1701.86	1655.88	1701.86	-64.0664	
293.040		1717.54		1655.82	1655.82	1655.83	1703.13	1655.82	1703.13	14.4129	
293.020		1684.39		1655.76	1655.76	1655.77	1704.44	1655.76	1704.44	-20.0562	
293.000		1740.70		1655.70	1655.70	1655.70	1705.80	1655.70	1705.81	34.8913	
292.980		1750.70		1655.64	1655.64	1655.64	1707.21	1655.64	1707.22	43.4828	
292.960		1676.67		1655.57	1655.57	1655.58	1708.68	1655.57	1708.68	-32.0125	
292.940		1714.69		1655.50	1655.50	1655.51	1710.19	1655.50	1710.20	4.48351	
292.920		1723.55		1655.43	1655.43	1655.44	1711.77	1655.43	1711.78	11.7712	
292.900		1779.28		1655.36	1655.36	1655.37	1713.39	1655.36	1713.41	65.8780	
292.880		1740.98		1655.28	1655.28	1655.30	1715.08	1655.28	1715.09	25.8872	
292.860		1740.41		1655.21	1655.21	1655.22	1716.83	1655.21	1716.84	23.5659	
292.840		1706.97		1655.13	1655.13	1655.15	1718.64	1655.13	1718.66	-11.6890	
292.820		1664.38		1655.05	1655.05	1655.07	1720.51	1655.05	1720.54	-56.1564	
292.800		1805.29		1654.96	1654.96	1655.00	1722.45	1654.96	1722.48	82.8122	
292.780		1801.01		1654.88	1654.88	1654.92	1724.45	1654.88	1724.49	76.5139	
292.760		1705.25		1654.79	1654.79	1654.84	1726.53	1654.79	1726.57	-21.3200	
292.740		1728.12		1654.70	1654.70	1654.75	1728.67	1654.70	1728.73	-0.606046	
292.720		1758.70		1654.61	1654.61	1654.67	1730.89	1654.61	1730.95	27.7494	
292.700		1863.89		1654.52	1654.52	1654.59	1733.18	1654.52	1733.26	130.628	
292.680		1786.71		1654.42	1654.42	1654.51	1735.55	1654.42	1735.64	51.0726	
292.660		1765.28		1654.32	1654.32	1654.44	1737.99	1654.32	1738.10	27.1740	
292.640		1817.30		1654.22	1654.22	1654.36	1740.51	1654.22	1740.65	76.6519	
292.620		1799.29		1654.12	1654.12	1654.28	1743.12	1654.12	1743.27	56.0175	
292.600		1806.44		1654.02	1654.02	1654.20	1745.80	1654.02	1745.98	60.4520	
292.580		1835.02		1653.91	1653.91	1654.13	1748.56	1653.91	1748.78	86.2374	
292.560		1876.75		1653.80	1653.80	1654.06	1751.41	1653.80	1751.67	125.083	
292.540		1811.01		1653.69	1653.69	1653.99	1754.34	1653.69	1754.64	56.3681	
292.520		1848.17		1653.57	1653.57	1653.92	1757.36	1653.57	1757.71	90.4593	
292.500		1743.27		1653.46	1653.46	1653.86	1760.46	1653.46	1760.87	-17.6019	
292.480		1759.28		1653.34	1653.34	1653.81	1763.66	1653.34	1764.13	-4.85511	
292.460		1866.75		1653.22	1653.22	1653.77	1766.94	1653.22	1767.49	99.2602	
292.440		1840.74		1653.10	1653.10	1653.73	1770.31	1653.10	1770.94	69.7939	
292.420		1828.16		1652.98	1652.98	1653.71	1773.77	1652.98	1774.50	53.6569	
292.400		1841.59		1652.86	1652.86	1653.70	1777.33	1652.86	1778.17	63.4271	
292.380		1915.05		1652.74	1652.74	1653.70	1780.98	1652.74	1781.94	133.116	
292.360		1889.61		1652.62	1652.62	1653.72	1784.71	1652.62	1785.81	103.801	
292.340		1862.46		1652.50	1652.50	1653.75	1788.54	1652.50	1789.80	72.6637	
292.320		1883.04		1652.38	1652.38	1653.80	1792.46	1652.38	1793.89	89.1523	
292.300		1914.48		1652.25	1652.25	1653.87	1796.47	1652.25	1798.09	116.394	
292.280		1827.02		1652.13	1652.13	1653.96	1800.57	1652.13	1802.40	24.6204	
292.260		1724.98		1652.00	1652.00	1654.07	1804.75	1652.00	1806.82	-81.8418	
292.240		1881.90		1651.87	1651.87	1654.20	1809.02	1651.87	1811.35	70.5450	
292.220		1833.88		1651.74	1651.74	1654.36	1813.38	1651.74	1815.99	17.8839	
292.200		1745.27		1651.61	1651.61	1654.54	1817.81	1651.61	1820.74	-75.4743	
292.180		1841.02		1651.47	1651.47	1654.75	1822.33	1651.47	1825.61	15.4126	
292.160		1784.14		1651.34	1651.34	1655.00	1826.93	1651.34	1830.59	-46.4460	
292.140		1762.42		1651.20	1651.20	1655.27	1831.60	1651.20	1835.68	-73.2585	
292.120		1871.61		1651.06	1651.06	1655.59	1836.35	1651.06	1840.88	30.7270	
292.100		1893.33		1650.92	1650.92	1655.94	1841.18	1650.92	1846.19	47.1362	
292.080		1927.63		1650.79	1650.79	1656.33	1846.08	1650.79	1851.62	76.0112	
292.060		1929.63		1650.65	1650.65	1656.76	1851.04	1650.65	1857.15	72.4788	
292.040		1842.45		1650.51	1650.51	1657.23	1856.07	1650.51	1862.79	-20.3382	
292.020		1893.90		1650.37	1650.37	1657.75	1861.16	1650.37	1868.53	25.3676	
292.000		1984.79		1650.23	1650.23	1658.31	1866.30	1650.23	1874.38	110.417	
291.980		1977.08		1650.09	1650.09	1658.91	1871.49	1650.09	1880.31	96.7616	
291.960		1817.01		1649.94	1649.94	1659.56	1876.72	1649.94	1886.35	-69.3334	
291.940		1856.17		1649.79	1649.79	1660.26	1882.00	1649.79	1892.47	-36.2954	
291.920		1954.21		1649.63	1649.63	1661.00	1887.30	1649.63	1898.67	55.5410	
291.900		1880.18		1649.47	1649.47	1661.78	1892.64	1649.47	1904.95	-24.7705	
291.880		1850.45		1649.30	1649.30	1662.61	1898.00	1649.30	1911.31	-60.8521	
291.860		1861.89		1649.13	1649.14	1663.49	1903.38	1649.13	1917.73	-55.8429	
291.840		1866.46		1648.96	1648.96	1664.41	1908.77	1648.96	1924.22	-57.7580	
291.820		1924.20		1648.79	1648.79	1665.38	1914.17	1648.79	1930.77	-6.56693	
291.800		1948.21		1648.61	1648.61	1666.40	1919.58	1648.61	1937.36	10.8450	
291.780		1885.33		1648.44	1648.44	1667.46	1924.98	1648.44	1944.01	-58.6802	
291.760		2052.25		1648.26	1648.26	1668.57	1930.37	1648.26	1950.68	101.565	
291.740		2019.38		1648.07	1648.08	1669.72	1935.74	1648.07	1957.39	61.9895	
291.720		1971.36		1647.89	1647.89	1670.92	1941.08	1647.89	1964.12	7.24464	
291.700		2049.68		1647.70	1647.71	1672.15	1946.40	1647.70	1970.85	78.8255	
291.680		2065.68		1647.51	1647.51	1673.42	1951.67	1647.51	1977.59	88.0961	
291.660		2031.67		1647.31	1647.32	1674.72	1956.90	1647.31	1984.31	47.3578	
291.640		1984.79		1647.11	1647.12	1676.05	1962.07	1647.11	1991.02	-6.22320	
291.620		1987.94		1646.90	1646.91	1677.41	1967.18	1646.90	1997.69	-9.75439	
291.600		2009.38		1646.69	1646.70	1678.80	1972.21	1646.69	2004.33	5.04704	
291.580		2033.67		1646.47	1646.48	1680.21	1977.17	1646.47	2010.92	22.7546	
291.560		1962.79		1646.25	1646.27	1681.64	1982.04	1646.25	2017.45	-54.6605	
291.540		2013.09		1646.03	1646.04	1683.10	1986.83	1646.03	2023.91	-10.8166	
291.520		2041.96		1645.81	1645.82	1684.57	1991.51	1645.81	2030.29	11.6666	
291.500		2089.41		1645.58	1645.60	1686.05	1996.09	1645.58	2036.59	52.8175	
291.480		2115.99		1645.35	1645.37	1687.56	2000.56	1645.35	2042.79	73.1983	
291.460		2057.39		1645.12	1645.14	1689.07	2004.91	1645.12	2048.89	8.50718	
291.440		2173.73		1644.88	1644.91	1690.59	2009.13	1644.88	2054.87	118.859	
291.420		2217.46		1644.65	1644.68	1692.12	2013.22	1644.65	2060.72	156.734	
291.400		2163.44		1644.41	1644.45	1693.66	2017.16	1644.41	2066.45	96.9876	
291.380		2129.99		1644.18	1644.22	1695.20	2020.96	1644.18	2072.03	57.9627	
291.360		2042.53		1643.94	1643.99	1696.74	2024.60	1643.94	2077.46	-34.9324	
291.340		2069.11		1643.69	1643.76	1698.28	2028.08	1643.69	2082.74	-13.6234	
291.320		2086.26		1643.45	1643.52	1699.82	2031.39	1643.45	2087.84	-1.58039	
291.300		2039.10		1643.20	1643.28	1701.36	2034.53	1643.20	2092.78	-53.6768	
291.280		2119.99		1642.95	1643.05	1702.90	2037.49	1642.95	2097.54	22.4548	
291.260		2091.41		1642.70	1642.81	1704.44	2040.26	1642.70	2102.11	-10.7045	
291.240		2067.97		1642.45	1642.58	1705.97	2042.85	1642.45	2106.50	-38.5324	
291.220		2071.97		1642.20	1642.35	1707.51	2045.24	1642.20	2110.70	-38.7295	
291.200		2127.42		1641.95	1642.12	1709.05	2047.44	1641.95	2114.71	12.7170	
291.180		2091.12		1641.70	1641.89	1710.59	2049.43	1641.70	2118.51	-27.3897	
291.160		2111.13		1641.46	1641.67	1712.14	2051.22	1641.46	2122.12	-10.9909	
291.140		2163.72		1641.22	1641.46	1713.70	2052.81	1641.22	2125.53	38.1910	
291.120		2134.85		1640.98	1641.26	1715.26	2054.18	1640.98	2128.74	6.11588	
291.100		2189.45		1640.74	1641.06	1716.83	2055.33	1640.74	2131.74	57.7074	
291.080		2158.29		1640.50	1640.86	1718.41	2056.27	1640.50	2134.54	23.7558	
291.060		2003.37		1640.27	1640.67	1720.01	2056.99	1640.27	2137.13	-133.754	
291.040		1998.23		1640.03	1640.48	1721.61	2057.48	1640.03	2139.51	-141.283	
291.020		2029.95		1639.79	1640.30	1723.23	2057.74	1639.79	2141.69	-111.737	
291.000		2085.41		1639.55	1640.12	1724.86	2057.79	1639.55	2143.67	-58.2682	
290.980		2071.40		1639.31	1639.95	1726.52	2057.60	1639.31	2145.46	-74.0576	
290.960		2010.80		1639.07	1639.79	1728.20	2057.19	1639.07	2147.05	-136.242	
290.940		1954.50		1638.83	1639.64	1729.91	2056.56	1638.83	2148.45	-193.949	
290.920		1947.06		1638.59	1639.49	1731.65	2055.70	1638.59	2149.66	-202.594	
290.900		2122.56		1638.36	1639.36	1733.43	2054.62	1638.36	2150.69	-28.1286	
290.880		2071.40		1638.12	1639.23	1735.24	2053.32	1638.12	2151.55	-80.1500	
290.860		2010.52		1637.88	1639.12	1737.09	2051.79	1637.88	2152.24	-141.722	
290.840		2086.83		1637.65	1639.02	1738.99	2050.06	1637.65	2152.77	-65.9356	
290.820		2145.43		1637.42	1638.94	1740.94	2048.11	1637.42	2153.15	-7.71916	
290.800		2080.26		1637.19	1638.87	1742.94	2045.95	1637.19	2153.38	-73.1215	
290.780		2004.80		1636.96	1638.82	1745.00	2043.58	1636.96	2153.48	-148.674	
290.760		2100.84		1636.73	1638.78	1747.12	2041.00	1636.73	2153.44	-52.5997	
290.740		2079.69		1636.50	1638.76	1749.30	2038.23	1636.50	2153.28	-73.5959	
290.720		2056.25		1636.28	1638.76	1751.56	2035.26	1636.28	2153.02	-96.7716	
290.700		2043.10		1636.06	1638.78	1753.89	2032.11	1636.06	2152.66	-109.560	
290.680		2082.26		1635.83	1638.82	1756.29	2028.77	1635.83	2152.21	-69.9508	
290.660		2084.26		1635.61	1638.87	1758.78	2025.25	1635.61	2151.68	-67.4202	
290.640		2082.83		1635.38	1638.95	1761.35	2021.55	1635.38	2151.09	-68.2521	
290.620		2029.10		1635.16	1639.05	1764.02	2017.68	1635.16	2150.44	-121.339	
290.600		1990.80		1634.94	1639.18	1766.79	2013.66	1634.94	2149.75	-158.952	
290.580		2030.53		1634.72	1639.33	1769.66	2009.47	1634.72	2149.03	-118.505	
290.560		2035.10		1634.49	1639.50	1772.65	2005.14	1634.49	2148.30	-113.202	
290.540		1995.08		1634.27	1639.71	1775.75	2000.67	1634.27	2147.58	-152.492	
290.520		1943.35		1634.06	1639.94	1778.98	1996.06	1634.06	2146.87	-203.520	
290.500		1873.32		1633.84	1640.20	1782.35	1991.32	1633.84	2146.19	-272.873	
290.480		1908.19		1633.63	1640.50	1785.86	1986.47	1633.63	2145.57	-237.379	
290.460		2096.27		1633.42	1640.83	1789.52	1981.51	1633.42	2145.01	-48.7476	
290.440		2005.66		1633.21	1641.18	1793.34	1976.44	1633.21	2144.54	-138.881	
290.420		2010.52		1633.00	1641.57	1797.32	1971.27	1633.00	2144.17	-133.648	
290.400		1978.79		1632.79	1642.00	1801.49	1966.00	1632.79	2143.91	-165.122	
290.380		2033.67		1632.58	1642.46	1805.85	1960.66	1632.58	2143.80	-110.130	
290.360		2031.67		1632.37	1642.95	1810.41	1955.24	1632.37	2143.85	-112.178	
290.340		2034.81		1632.17	1643.47	1815.19	1949.75	1632.17	2144.08	-109.262	
290.320		1993.08		1631.96	1644.03	1820.19	1944.20	1631.96	2144.51	-151.425	
290.300		1951.07		1631.75	1644.63	1825.45	1938.59	1631.75	2145.17	-194.101	
290.280		1917.05		1631.54	1645.26	1830.97	1932.94	1631.54	2146.08	-229.025	
290.260		1917.91		1631.33	1645.92	1836.77	1927.24	1631.33	2147.26	-229.354	
290.240		1917.05		1631.12	1646.62	1842.87	1921.51	1631.12	2148.75	-231.701	
290.220		2045.10		1630.91	1647.34	1849.29	1915.75	1630.91	2150.57	-105.471	
290.200		2066.54		1630.69	1648.10	1856.06	1909.97	1630.69	2152.76	-86.2150	
290.180		1991.08		1630.46	1648.89	1863.20	1904.17	1630.46	2155.34	-164.253	
290.160		2004.23		1630.24	1649.71	1870.74	1898.37	1630.24	2158.34	-154.114	
290.140		2024.81		1630.01	1650.56	1878.71	1892.56	1630.01	2161.82	-137.010	
290.120		2042.25		1629.77	1651.44	1887.15	1886.76	1629.77	2165.80	-123.555	
290.100		2001.94		1629.53	1652.35	1896.09	1880.96	1629.53	2170.33	-168.385	
290.080		1999.66		1629.29	1653.28	1905.57	1875.18	1629.29	2175.45	-175.794	
290.060		2057.97		1629.04	1654.24	1915.64	1869.42	1629.04	2181.22	-123.251	
290.040		2081.40		1628.79	1655.23	1926.34	1863.68	1628.79	2187.68	-106.272	
290.020		2079.12		1628.53	1656.24	1937.72	1857.98	1628.53	2194.88	-115.766	
290.000		2100.55		1628.26	1657.26	1949.85	1852.31	1628.26	2202.90	-102.343	
289.980		2168.58		1627.98	1658.31	1962.77	1846.67	1627.98	2211.78	-43.2007	
289.960		2124.85		1627.69	1659.37	1976.55	1841.07	1627.69	2221.61	-96.7562	
289.940		2204.02		1627.40	1660.45	1991.27	1835.52	1627.40	2232.45	-28.4209	
289.920		2232.04		1627.10	1661.55	2007.00	1830.03	1627.10	2244.38	-12.3434	
289.900		2295.78		1626.79	1662.65	2023.83	1824.58	1626.79	2257.49	38.2868	
289.880		2309.21		1626.46	1663.77	2041.83	1819.19	1626.46	2271.87	37.3438	
289.860		2209.74		1626.13	1664.89	2061.11	1813.86	1626.13	2287.61	-77.8649	
289.840		2219.17		1625.79	1666.02	2081.77	1808.59	1625.78	2304.81	-85.6394	
289.820		2321.50		1625.43	1667.16	2103.91	1803.38	1625.43	2323.59	-2.09471	
289.800		2321.50		1625.06	1668.30	2127.65	1798.24	1625.06	2344.07	-22.5671	
289.780		2370.66		1624.69	1669.44	2153.11	1793.17	1624.69	2366.35	4.31045	
289.760		2425.54		1624.30	1670.58	2180.42	1788.17	1624.30	2390.58	34.9639	
289.740		2430.69		1623.90	1671.72	2209.70	1783.24	1623.89	2416.88	13.8109	
289.720		2435.26		1623.48	1672.85	2241.10	1778.38	1623.47	2445.38	-10.1242	
289.700		2478.13		1623.04	1673.97	2274.76	1773.59	1623.04	2476.25	1.88445	
289.680		2592.75		1622.58	1675.08	2310.83	1768.87	1622.58	2509.62	83.1310	
289.660		2557.31		1622.11	1676.17	2349.46	1764.21	1622.10	2545.65	11.6560	
289.640		2605.04		1621.61	1677.25	2390.83	1759.63	1621.60	2584.51	20.5354	
289.620		2611.33		1621.09	1678.32	2435.08	1755.11	1621.09	2626.35	-15.0148	
289.600		2600.18		1620.55	1679.36	2482.38	1750.67	1620.54	2671.33	-71.1462	
289.580		2610.76		1619.98	1680.37	2532.89	1746.28	1619.97	2719.62	-108.862	
289.560		2654.20		1619.38	1681.36	2586.78	1741.96	1619.37	2771.38	-117.178	
289.540		2705.37		1618.76	1682.32	2644.22	1737.70	1618.74	2826.78	-121.412	
289.520		2865.72		1618.10	1683.25	2705.35	1733.50	1618.07	2885.97	-20.2512	
289.500		3037.79		1617.41	1684.14	2770.33	1729.36	1617.38	2949.10	88.6845	
289.480		3081.23		1616.69	1685.01	2839.31	1725.28	1616.66	3016.32	64.9109	
289.460		3244.73		1615.94	1685.84	2912.41	1721.26	1615.89	3087.76	156.966	
289.440		3326.19		1615.15	1686.64	2989.77	1717.28	1615.10	3163.54	162.649	
289.420		3337.91		1614.32	1687.39	3071.47	1713.36	1614.26	3243.76	94.1456	
289.400		3441.09		1613.46	1688.12	3157.62	1709.49	1613.39	3328.51	112.576	
289.380		3655.18		1612.56	1688.80	3248.27	1705.66	1612.48	3417.86	237.315	
289.360		3810.67		1611.62	1689.44	3343.47	1701.87	1611.52	3511.85	298.822	
289.340		3851.25		1610.64	1690.03	3443.24	1698.13	1610.52	3610.48	240.772	
289.320		3914.71		1609.61	1690.59	3547.55	1694.42	1609.47	3713.76	200.947	
289.300		4043.62		1608.54	1691.10	3656.37	1690.74	1608.37	3821.63	221.983	
289.280		4064.20		1607.42	1691.56	3769.62	1687.09	1607.22	3934.02	130.174	
289.260		4254.27		1606.26	1691.98	3887.19	1683.47	1606.03	4050.82	203.458	
289.240		4306.58		1605.05	1692.36	4008.91	1679.88	1604.78	4171.86	134.721	
289.220		4454.92		1603.81	1692.69	4134.61	1676.32	1603.49	4296.96	157.963	
289.200		4507.80		1602.52	1692.99	4264.04	1672.78	1602.15	4425.89	81.9154	
289.180		4678.44		1601.19	1693.25	4396.92	1669.26	1600.75	4558.36	120.087	
289.160		4936.55		1599.81	1693.47	4532.93	1665.76	1599.31	4694.04	242.501	
289.140		4977.71		1598.40	1693.65	4671.70	1662.27	1597.81	4832.59	145.119	
289.120		5014.58		1596.94	1693.78	4812.81	1658.80	1596.26	4973.57	41.0116	
289.100		5119.19		1595.44	1693.88	4955.82	1655.34	1594.65	5116.53	2.66008	
289.080		5342.99		1593.90	1693.94	5100.22	1651.88	1592.99	5260.99	82.0089	
289.060		5379.58		1592.32	1693.97	5245.48	1648.43	1591.27	5406.40	-26.8161	
289.040		5461.90		1590.71	1693.97	5391.01	1644.99	1589.50	5552.19	-90.2881	
289.020		5522.78		1589.06	1693.93	5536.22	1641.55	1587.67	5697.75	-174.972	
289.000		5623.39		1587.37	1693.86	5680.46	1638.10	1585.78	5842.45	-219.058	
288.980		5780.31		1585.66	1693.76	5823.06	1634.66	1583.84	5985.62	-205.309	
288.960		6085.29		1583.92	1693.63	5963.34	1631.21	1581.84	6126.58	-41.2902	
288.940		6116.16		1582.16	1693.49	6100.59	1627.77	1579.80	6264.63	-148.471	
288.920		6234.49		1580.39	1693.33	6234.11	1624.32	1577.70	6399.06	-164.564	
288.900		6504.32		1578.60	1693.15	6363.16	1620.87	1575.55	6529.15	-24.8323	
288.880		6706.40		1576.81	1692.97	6487.05	1617.42	1573.35	6654.20	52.2000	
288.860		6818.44		1575.02	1692.77	6605.06	1613.97	1571.11	6773.49	44.9468	
288.840		6777.00		1573.23	1692.58	6716.49	1610.52	1568.82	6886.36	-109.359	
288.820		7035.67		1571.46	1692.38	6820.69	1607.06	1566.49	6992.12	43.5530	
288.800		7028.81		1569.69	1692.19	6917.01	1603.60	1564.12	7090.15	-61.3361	
288.780		7316.07		1567.96	1692.01	7004.84	1600.14	1561.70	7179.85	136.220	
288.760		7216.03		1566.25	1691.84	7083.64	1596.68	1559.25	7260.67	-44.6399	
288.740		7216.03		1564.58	1691.70	7152.88	1593.22	1556.76	7332.10	-116.073	
288.720		7264.91		1562.96	1691.57	7212.12	1589.76	1554.24	7393.70	-128.795	
288.700		7444.41		1561.39	1691.48	7260.96	1586.31	1551.69	7445.08	-0.670934	
288.680		7374.66		1559.90	1691.43	7299.07	1582.87	1549.12	7485.91	-111.250	
288.660		7309.21		1558.48	1691.43	7326.19	1579.44	1546.53	7515.95	-206.745	
288.640		7595.90		1557.15	1691.49	7342.13	1576.03	1543.93	7535.01	60.8864	
288.620		7557.02		1555.91	1691.60	7346.75	1572.63	1541.31	7542.97	14.0570	
288.600		7493.00		1554.78	1691.78	7340.03	1569.25	1538.68	7539.79	-46.7959	
288.580		7694.79		1553.77	1692.04	7321.99	1565.89	1536.05	7525.53	169.259	
288.560		7518.72		1552.89	1692.39	7292.75	1562.57	1533.43	7500.30	18.4205	
288.540		7498.14		1552.15	1692.83	7252.48	1559.28	1530.82	7464.29	33.8542	
288.520		7493.28		1551.56	1693.38	7201.43	1556.01	1528.21	7417.75	75.5352	
288.500		7426.11		1551.13	1694.04	7139.93	1552.79	1525.62	7361.02	65.0950	
288.480		7294.63		1550.87	1694.82	7068.35	1549.62	1523.05	7294.49	0.142655	
288.460		7057.11		1550.78	1695.72	6987.15	1546.48	1520.50	7218.61	-161.505	
288.440		6971.07		1550.87	1696.77	6896.82	1543.38	1517.98	7133.90	-162.829	
288.420		7184.59		1551.16	1697.95	6797.91	1540.33	1515.48	7040.92	143.668	
288.400		7281.20		1551.65	1699.29	6691.03	1537.34	1513.01	6940.27	340.929	
288.380		7046.82		1552.34	1700.79	6576.81	1534.39	1510.58	6832.59	214.225	
288.360		6817.30		1553.25	1702.47	6455.92	1531.50	1508.19	6718.57	98.7238	
288.340		6487.45		1554.38	1704.34	6329.03	1528.67	1505.84	6598.91	-111.454	
288.320		6475.73		1555.74	1706.39	6196.87	1525.90	1503.53	6474.31	1.42730	
288.300		6547.76		1557.33	1708.66	6060.16	1523.19	1501.28	6345.51	202.255	
288.280		6185.33		1559.15	1711.15	5919.61	1520.56	1499.08	6213.24	-27.9060	
288.260		6119.30		1561.22	1713.86	5775.94	1517.98	1496.93	6078.22	41.0845	
288.240		6061.00		1563.52	1716.81	5629.86	1515.48	1494.83	5941.18	119.820	
288.220		5906.93		1566.05	1720.01	5482.06	1513.04	1492.79	5802.81	104.124	
288.200		5812.61		1568.83	1723.48	5333.23	1510.67	1490.80	5663.81	148.806	
288.180		5629.11		1571.84	1727.21	5184.00	1508.36	1488.87	5524.81	104.296	
288.160		5376.72		1575.08	1731.23	5034.99	1506.12	1486.98	5386.46	-9.73861	
288.140		5216.09		1578.55	1735.55	4886.79	1503.94	1485.16	5249.35	-33.2636	
288.120		5225.80		1582.25	1740.18	4739.96	1501.84	1483.40	5114.04	111.761	
288.100		4964.56		1586.17	1745.16	4595.00	1499.81	1481.69	4981.06	-16.5014	
288.080		4693.02		1590.32	1750.48	4452.38	1497.84	1480.05	4850.87	-157.850	
288.060		4559.82		1594.67	1756.16	4312.51	1495.94	1478.46	4723.91	-164.085	
288.040		4663.58		1599.22	1762.22	4175.78	1494.10	1476.92	4600.57	63.0130	
288.020		4491.23		1603.97	1768.68	4042.52	1492.32	1475.44	4481.19	10.0314	
288.000		4257.13		1608.90	1775.56	3913.02	1490.60	1474.00	4366.09	-108.957	
287.980		4125.65		1614.01	1782.88	3787.53	1488.94	1472.62	4255.52	-129.867	
287.960		4167.67		1619.29	1790.67	3666.25	1487.34	1471.29	4149.70	17.9648	
287.940		4072.77		1624.74	1798.96	3549.35	1485.80	1470.01	4048.82	23.9471	
287.920		3957.58		1630.33	1807.76	3436.95	1484.31	1468.78	3953.03	4.55794	
287.900		3760.65		1636.06	1817.11	3329.13	1482.88	1467.59	3862.41	-101.760	
287.880		3652.89		1641.92	1827.03	3225.93	1481.49	1466.44	3777.04	-124.151	
287.860		3578.86		1647.90	1837.55	3127.39	1480.14	1465.33	3696.97	-118.112	
287.840		3420.80		1653.98	1848.71	3033.48	1478.84	1464.26	3622.22	-201.423	
287.820		3523.70		1660.16	1860.55	2944.17	1477.58	1463.23	3552.77	-29.0753	
287.800		3463.10		1666.42	1873.10	2859.38	1476.36	1462.22	3488.59	-25.4909	
287.780		3454.24		1672.76	1886.40	2779.04	1475.17	1461.25	3429.63	24.6082	
287.760		3269.02		1679.17	1900.50	2703.05	1474.01	1460.30	3375.83	-106.810	
287.740		3036.36		1685.63	1915.44	2631.28	1472.88	1459.38	3327.11	-290.755	
287.720		3002.63		1692.15	1931.27	2563.60	1471.79	1458.48	3283.38	-280.752	
287.700		3096.95		1698.71	1948.04	2499.86	1470.71	1457.59	3244.54	-147.588	
287.680		3180.99		1705.30	1965.81	2439.91	1469.66	1456.73	3210.49	-29.5042	
287.660		3151.26		1711.92	1984.63	2383.60	1468.63	1455.88	3181.13	-29.8664	
287.640		3071.51		1718.56	2004.57	2330.75	1467.61	1455.05	3156.34	-84.8293	
287.620		2961.18		1725.22	2025.68	2281.20	1466.61	1454.23	3136.03	-174.850	
287.600		3045.79		1731.90	2048.04	2234.78	1465.63	1453.42	3120.09	-74.3045	
287.580		3069.51		1738.58	2071.70	2191.32	1464.65	1452.61	3108.43	-38.9129	
287.560		3024.92		1745.27	2096.74	2150.66	1463.69	1451.81	3100.93	-76.0101	
287.540		2910.88		1751.96	2123.24	2112.63	1462.72	1451.01	3097.53	-186.655	
287.520		3034.07		1758.65	2151.27	2077.07	1461.76	1450.20	3098.14	-64.0685	
287.500		3000.63		1765.34	2180.90	2043.82	1460.80	1449.39	3102.68	-102.053	
287.480		3108.10		1772.03	2212.23	2012.75	1459.84	1448.58	3111.10	-2.99565	
287.460		3131.54		1778.72	2245.32	1983.69	1458.86	1447.76	3123.32	8.21879	
287.440		3142.11		1785.41	2280.26	1956.51	1457.88	1446.92	3139.31	2.80893	
287.420		3100.95		1792.10	2317.15	1931.08	1456.88	1446.06	3159.02	-58.0634	
287.400		3116.68		1798.79	2356.07	1907.28	1455.88	1445.20	3182.43	-65.7555	
287.380		3183.56		1805.51	2397.11	1885.00	1454.86	1444.32	3209.52	-25.9632	
287.360		3179.84		1812.24	2440.37	1864.11	1453.84	1443.43	3240.28	-60.4356	
287.340		3272.17		1819.00	2485.93	1844.53	1452.80	1442.52	3274.69	-2.52656	
287.320		3346.48		1825.78	2533.87	1826.15	1451.75	1441.60	3312.76	33.7189	
287.300		3599.44		1832.61	2584.29	1808.87	1450.68	1440.65	3354.49	244.951	
287.280		3558.85		1839.47	2637.27	1792.62	1449.59	1439.69	3399.88	158.971	
287.260		3585.15		1846.37	2692.88	1777.30	1448.47	1438.69	3448.95	136.199	
287.240		3744.64		1853.33	2751.21	1762.84	1447.33	1437.67	3501.71	242.933	
287.220		3838.11		1860.35	2812.34	1749.18	1446.16	1436.62	3558.17	279.933	
287.200		3796.09		1867.44	2876.32	1736.25	1444.96	1435.54	3618.37	177.723	
287.180		3841.25		1874.61	2943.23	1724.00	1443.74	1434.42	3682.30	158.948	
287.160		3816.67		1881.86	3013.12	1712.36	1442.48	1433.27	3750.00	66.6729	
287.140		3778.94		1889.21	3086.04	1701.29	1441.18	1432.09	3821.46	-42.5216	
287.120		3784.09		1896.66	3162.04	1690.74	1439.85	1430.87	3896.70	-112.619	
287.100		3902.42		1904.23	3241.15	1680.67	1438.49	1429.60	3975.73	-73.3077	
287.080		4255.13		1911.92	3323.38	1671.03	1437.07	1428.30	4058.52	196.610	
287.060		4254.56		1919.74	3408.75	1661.80	1435.62	1426.94	4145.08	109.481	
287.040		4356.03		1927.72	3497.26	1652.93	1434.13	1425.55	4235.38	120.646	
287.020		4613.56		1935.85	3588.89	1644.40	1432.59	1424.11	4329.40	284.158	
287.000		4628.14		1944.16	3683.63	1636.19	1431.01	1422.63	4427.10	201.038	
286.980		4800.49		1952.65	3781.43	1628.26	1429.39	1421.10	4528.42	272.074	
286.960		4873.66		1961.34	3882.22	1620.59	1427.72	1419.53	4633.29	240.371	
286.940		4991.14		1970.24	3985.95	1613.17	1426.01	1417.91	4741.64	249.495	
286.920		5024.01		1979.37	4092.51	1605.97	1424.25	1416.24	4853.38	170.631	
286.900		5240.38		1988.75	4201.80	1598.97	1422.44	1414.53	4968.38	271.999	
286.880		5370.72		1998.38	4313.69	1592.16	1420.59	1412.76	5086.53	284.189	
286.860		5672.27		2008.28	4428.02	1585.51	1418.68	1410.94	5207.67	464.598	
286.840		5695.71		2018.46	4544.64	1579.00	1416.71	1409.05	5331.64	364.064	
286.820		5708.00		2028.93	4663.35	1572.63	1414.67	1407.11	5458.26	249.734	
286.800		5981.82		2039.72	4783.96	1566.37	1412.58	1405.10	5587.34	394.477	
286.780		5892.07		2050.85	4906.25	1560.23	1410.43	1403.03	5718.67	173.397	
286.760		6137.03		2062.33	5029.98	1554.18	1408.21	1400.89	5852.02	285.004	
286.740		6274.80		2074.20	5154.88	1548.23	1405.93	1398.70	5987.15	287.647	
286.720		6310.52		2086.47	5280.70	1542.35	1403.60	1396.45	6123.79	186.731	
286.700		6395.42		2099.18	5407.14	1536.56	1401.21	1394.14	6261.68	133.734	
286.680		6447.72		2112.35	5533.88	1530.84	1398.77	1391.77	6400.53	47.1958	
286.660		6608.07		2126.01	5660.62	1525.18	1396.27	1389.35	6540.02	68.0506	
286.640		6947.06		2140.18	5786.99	1519.57	1393.71	1386.86	6679.85	267.217	
286.620		7051.96		2154.90	5912.66	1514.00	1391.09	1384.32	6819.68	232.281	
286.600		7503.86		2170.20	6037.26	1508.49	1388.41	1381.72	6959.19	544.664	
286.580		7610.47		2186.12	6160.43	1503.01	1385.68	1379.07	7098.04	512.429	
286.560		7608.47		2202.70	6281.79	1497.56	1382.90	1376.36	7235.88	372.591	
286.540		7818.27		2219.99	6400.94	1492.14	1380.06	1373.59	7372.36	445.913	
286.520		7852.86		2238.02	6517.51	1486.75	1377.16	1370.77	7507.13	345.728	
286.500		7858.86		2256.84	6631.09	1481.38	1374.22	1367.90	7639.84	219.017	
286.480		7936.32		2276.52	6741.31	1476.03	1371.23	1364.98	7770.16	166.159	
286.460		7836.56		2297.11	6847.78	1470.70	1368.19	1362.01	7897.74	-61.1782	
286.440		8172.41		2318.65	6950.11	1465.38	1365.10	1358.99	8022.26	150.152	
286.420		8400.22		2341.23	7047.93	1460.07	1361.97	1355.93	8143.40	256.821	
286.400		8437.66		2364.91	7140.86	1454.76	1358.79	1352.82	8260.85	176.812	
286.380		8464.81		2389.76	7228.55	1449.46	1355.56	1349.67	8374.33	90.4832	
286.360		8624.59		2415.86	7310.67	1444.16	1352.29	1346.47	8483.58	141.009	
286.340		8825.53		2443.31	7386.90	1438.87	1348.99	1343.23	8588.36	237.166	
286.320		8792.37		2472.20	7456.93	1433.58	1345.65	1339.96	8688.46	103.912	
286.300		8770.65		2502.64	7520.47	1428.29	1342.28	1336.67	8783.69	-13.0395	
286.280		8766.65		2534.73	7577.28	1423.01	1338.89	1333.34	8873.89	-107.239	
286.260		8681.19		2568.59	7627.10	1417.73	1335.46	1329.98	8958.93	-277.742	
286.240		8827.82		2604.35	7669.72	1412.44	1332.00	1326.60	9038.72	-210.901	
286.220		8947.58		2642.13	7704.96	1407.14	1328.52	1323.18	9113.20	-165.623	
286.200		8930.14		2682.08	7732.65	1401.83	1325.00	1319.73	9182.37	-252.223	
286.180		9019.61		2724.35	7752.67	1396.49	1321.45	1316.24	9246.23	-226.621	
286.160		9132.80		2769.11	7764.93	1391.15	1317.87	1312.73	9304.87	-172.071	
286.140		9153.66		2816.56	7769.36	1385.79	1314.26	1309.19	9358.40	-204.734	
286.120		9142.23		2866.87	7765.94	1380.41	1310.63	1305.63	9406.97	-264.742	
286.100		9157.38		2920.27	7754.66	1375.02	1306.97	1302.04	9450.80	-293.425	
286.080		9172.81		2976.98	7735.57	1369.63	1303.31	1298.44	9490.15	-317.336	
286.060		9193.68		3037.23	7708.72	1364.22	1299.63	1294.83	9525.31	-331.629	
286.040		9362.03		3101.27	7674.22	1358.80	1295.93	1291.20	9556.62	-194.591	
286.020		9492.94		3169.38	7632.18	1353.36	1292.22	1287.55	9584.48	-91.5427	
286.000		9510.66		3241.84	7582.77	1347.91	1288.48	1283.89	9609.33	-98.6693	
285.980		9503.52		3318.93	7526.15	1342.43	1284.72	1280.20	9631.65	-128.130	
285.960		9804.78		3400.99	7462.55	1336.93	1280.94	1276.48	9651.96	152.819	
285.940		9690.45		3488.34	7392.19	1331.39	1277.12	1272.73	9670.85	19.5963	
285.920		9694.16		3581.35	7315.35	1325.83	1273.28	1268.96	9688.94	5.22547	
285.900		9857.37		3680.40	7232.29	1320.23	1269.40	1265.15	9706.88	150.493	
285.880		9481.79		3785.86	7143.33	1314.60	1265.49	1261.30	9725.38	-243.583	
285.860		9347.17		3898.17	7048.79	1308.94	1261.55	1257.43	9745.17	-398.004	
285.840		9425.48		4017.74	6949.03	1303.26	1257.57	1253.52	9767.04	-341.557	
285.820		9593.27		4145.04	6844.38	1297.55	1253.57	1249.58	9791.79	-198.522	
285.800		9708.45		4280.52	6735.22	1291.81	1249.53	1245.61	9820.24	-111.788	
285.780		9739.32		4424.66	6621.91	1286.04	1245.45	1241.60	9853.26	-113.937	
285.760		10029.4		4577.95	6504.84	1280.24	1241.33	1237.55	9891.72	137.721	
285.740		10300.7		4740.90	6384.39	1274.40	1237.16	1233.45	9936.51	364.179	
285.720		10320.7		4914.00	6260.95	1268.53	1232.94	1229.29	9988.54	332.155	
285.700		10538.5		5097.79	6134.90	1262.62	1228.66	1225.08	10048.7	489.779	
285.680		10854.6		5292.78	6006.64	1256.66	1224.32	1220.81	10118.0	736.656	
285.660		10862.6		5499.52	5876.54	1250.68	1219.93	1216.48	10197.2	665.418	
285.640		10858.1		5718.53	5745.00	1244.66	1215.48	1212.10	10287.4	570.700	
285.620		10652.3		5950.33	5612.38	1238.62	1210.98	1207.67	10389.3	262.958	
285.600		10900.4		6195.42	5479.03	1232.53	1206.40	1203.16	10503.9	396.451	
285.580		11007.5		6454.28	5345.29	1226.40	1201.74	1198.57	10632.0	375.533	
285.560		11270.2		6727.39	5211.48	1220.20	1196.99	1193.88	10774.4	495.798	
285.540		11700.4		7015.18	5077.93	1213.94	1192.13	1189.09	10931.9	768.481	
285.520		11893.9		7318.06	4944.93	1207.60	1187.17	1184.19	11105.2	788.696	
285.500		12252.6		7636.42	4812.76	1201.19	1182.07	1179.16	11295.0	957.652	
285.480		12876.3		7970.58	4681.70	1194.69	1176.86	1174.01	11501.8	1374.49	
285.460		12869.7		8320.84	4552.00	1188.11	1171.51	1168.73	11726.3	1143.44	
285.440		12721.4		8687.42	4423.90	1181.43	1166.03	1163.31	11968.9	752.523	
285.420		12602.5		9070.49	4297.61	1174.67	1160.41	1157.75	12229.9	372.555	
285.400		12817.4		9470.15	4173.33	1167.82	1154.65	1152.06	12509.8	307.643	
285.380		13332.5		9886.41	4051.24	1160.86	1148.74	1146.21	12808.6	523.865	
285.360		14008.2		10319.2	3931.48	1153.79	1142.67	1140.20	13126.5	881.645	
285.340		14593.6		10768.3	3814.19	1146.59	1136.41	1134.01	13463.5	1130.05	
285.320		15170.9		11233.6	3699.50	1139.27	1129.99	1127.65	13819.4	1351.50	
285.300		15787.5		11714.6	3587.51	1131.82	1123.38	1121.10	14194.0	1593.42	
285.280		16524.9		12211.0	3478.31	1124.23	1116.60	1114.38	14587.0	1937.92	
285.260		16974.5		12722.0	3371.96	1116.51	1109.63	1107.47	14997.7	1976.76	
285.240		17282.3		13247.2	3268.53	1108.65	1102.47	1100.37	15425.7	1856.64	
285.220		17814.3		13785.5	3168.07	1100.66	1095.14	1093.09	15870.1	1944.18	
285.200		18035.8		14336.2	3070.59	1092.54	1087.62	1085.64	16330.0	1705.77	
285.180		18518.0		14898.1	2976.11	1084.26	1079.91	1077.98	16804.4	1713.56	
285.160		19100.2		15470.1	2884.60	1075.83	1072.00	1070.13	17292.1	1808.10	
285.140		19906.2		16050.8	2796.05	1067.22	1063.88	1062.06	17791.8	2114.47	
285.120		20438.5		16638.9	2710.44	1058.44	1055.54	1053.78	18301.9	2136.51	
285.100		20396.7		17232.7	2627.71	1049.47	1046.98	1045.27	18821.0	1575.69	
285.080		20833.5		17830.7	2547.82	1040.31	1038.19	1036.53	19347.4	1486.11	
285.060		21316.2		18431.0	2470.74	1030.97	1029.18	1027.58	19879.1	1437.13	
285.040		21680.7		19031.8	2396.41	1021.45	1019.97	1018.42	20414.3	1266.33	
285.020		22194.6		19631.1	2324.77	1011.76	1010.55	1009.05	20951.0	1243.56	
285.000		22171.7		20227.0	2255.75	1001.90	1000.94	999.492	21487.1	684.640	
284.980		22554.5		20817.2	2189.29	991.875	991.137	989.738	22020.3	534.155	
284.960		23610.0		21399.6	2125.31	981.680	981.138	979.787	22548.4	1061.62	
284.940		23696.3		21972.0	2063.71	971.316	970.947	969.642	23069.1	627.276	
284.920		24272.9		22532.1	2004.41	960.782	960.565	959.306	23579.9	692.909	
284.900		24675.6		23077.6	1947.35	950.087	950.002	948.789	24078.7	596.914	
284.880		25802.6		23606.2	1892.43	939.233	939.264	938.095	24562.9	1239.75	
284.860		26275.1		24115.7	1839.57	928.237	928.366	927.240	25030.2	1244.93	
284.840		26319.7		24603.8	1788.70	917.102	917.316	916.232	25478.2	841.461	
284.820		26756.1		25068.3	1739.72	905.823	906.108	905.065	25904.7	851.417	
284.800		26935.9		25507.0	1692.54	894.396	894.740	893.738	26307.4	628.492	
284.780		27193.7		25917.8	1647.09	882.837	883.230	882.268	26684.2	509.537	
284.760		27402.7		26298.9	1603.29	871.160	871.592	870.668	27033.0	369.698	
284.740		27988.6		26648.4	1561.07	859.367	859.830	858.943	27351.8	636.808	
284.720		28319.3		26964.4	1520.33	847.462	847.948	847.097	27638.9	680.436	
284.700		28449.7		27245.5	1481.02	835.451	835.954	835.138	27892.5	557.135	
284.680		28372.8		27490.2	1443.07	823.347	823.862	823.080	28111.2	261.555	
284.660		28670.9		27697.2	1406.40	811.160	811.680	810.932	28293.6	377.274	
284.640		28557.4		27865.4	1370.97	798.901	799.423	798.707	28438.6	118.853	
284.620		28747.8		27994.0	1336.71	786.594	787.114	786.430	28545.1	202.678	
284.600		28941.3		28082.2	1303.60	774.269	774.784	774.129	28612.5	328.810	
284.580		29501.8		28129.6	1271.58	761.937	762.444	761.819	28640.1	861.675	
284.560		29016.5		28135.9	1240.60	749.599	750.097	749.500	28627.7	388.788	
284.540		28597.2		28100.9	1210.59	737.268	737.754	737.185	28575.0	22.1640	
284.520		28870.4		28024.9	1181.53	724.953	725.426	724.884	28482.1	388.270	
284.500		28633.7		27908.1	1153.36	712.667	713.126	712.609	28349.4	284.342	
284.480		28594.9		27751.1	1126.05	700.422	700.866	700.374	28177.3	417.598	
284.460		28805.8		27554.6	1099.57	688.234	688.663	688.194	27966.5	839.357	
284.440		28434.8		27319.6	1073.88	676.118	676.530	676.085	27717.8	716.957	
284.420		28250.7		27047.2	1048.95	664.082	664.478	664.055	27432.5	818.198	
284.400		27353.5		26738.7	1024.75	652.132	652.512	652.110	27111.8	241.743	
284.380		26762.7		26395.6	1001.26	640.291	640.654	640.272	26757.0	5.69978	
284.360		26565.5		26019.5	978.464	628.573	628.920	628.558	26369.8	195.652	
284.340		26506.9		25612.3	956.333	616.992	617.322	616.979	25952.0	554.907	
284.320		26303.1		25175.7	934.849	605.557	605.872	605.547	25505.3	797.781	
284.300		25814.9		24711.8	913.999	594.285	594.584	594.277	25031.8	783.101	
284.280		25475.3		24222.6	893.761	583.182	583.467	583.176	24533.5	941.835	
284.260		24950.0		23710.4	874.114	572.255	572.525	572.250	24012.6	937.427	
284.240		24601.6		23177.4	855.049	561.516	561.772	561.512	23471.2	1130.39	
284.220		24128.5		22625.8	836.542	550.968	551.210	550.964	22911.6	1216.92	
284.200		23808.1		22057.9	818.585	540.622	540.851	540.619	22336.1	1472.02	
284.180		23353.1		21476.0	801.176	530.496	530.712	530.494	21746.9	1606.11	
284.160		22428.1		20882.5	784.299	520.595	520.799	520.593	21146.4	1281.67	
284.140		21432.9		20279.6	767.941	510.921	511.114	510.920	20536.9	896.005	
284.120		20958.1		19669.6	752.075	501.465	501.646	501.464	19920.4	1037.74	
284.100		20550.2		19054.5	736.685	492.227	492.397	492.226	19299.1	1251.09	
284.080		20245.2		18436.6	721.767	483.216	483.376	483.215	18675.3	1569.97	
284.060		19341.7		17817.8	707.312	474.437	474.588	474.436	18050.8	1290.91	
284.040		18644.0		17200.2	693.308	465.891	466.032	465.890	17427.7	1216.31	
284.020		18143.3		16585.5	679.747	457.580	457.713	457.580	16807.8	1335.44	
284.000		17843.1		15975.6	666.622	449.511	449.635	449.510	16192.9	1650.28	
283.980		17100.3		15372.1	653.919	441.677	441.794	441.677	15584.5	1515.79	
283.960		16351.1		14776.5	641.635	434.088	434.197	434.087	14984.2	1366.91	
283.940		15765.2		14190.3	629.765	426.744	426.847	426.744	14393.4	1371.72	
283.920		15364.7		13614.7	618.300	419.649	419.744	419.649	13813.5	1551.24	
283.900		15048.0		13051.0	607.240	412.807	412.897	412.807	13245.5	1802.55	
283.880		14479.8		12500.0	596.571	406.215	406.298	406.215	12690.4	1789.34	
283.860		13701.2		11962.8	586.275	399.859	399.937	399.859	12149.3	1551.89	
283.840		13427.7		11440.1	576.340	393.735	393.808	393.735	11622.8	1804.83	
283.820		13180.1		10932.7	566.760	387.843	387.911	387.843	11111.7	2068.45	
283.800		12505.0		10441.0	557.532	382.186	382.249	382.186	10616.4	1888.58	
283.780		11934.8		9965.54	548.641	376.755	376.813	376.755	10137.5	1797.29	
283.760		11639.8		9506.61	540.074	371.541	371.595	371.541	9675.20	1964.60	
283.740		10880.9		9064.45	531.821	366.539	366.590	366.539	9229.78	1651.14	
283.720		10270.1		8639.20	523.877	361.750	361.797	361.750	8801.38	1468.73	
283.700		9875.38		8230.91	516.232	357.167	357.211	357.167	8390.02	1485.36	
283.680		9080.49		7839.55	508.872	352.782	352.823	352.782	7995.68	1084.81	
283.660		8454.52		7464.99	501.789	348.590	348.627	348.590	7618.22	836.302	
283.640		8129.82		7107.05	494.974	344.585	344.619	344.585	7257.47	872.349	
283.620		7932.60		6765.50	488.426	340.770	340.802	340.770	6913.19	1019.41	
283.600		7511.29		6440.04	482.135	337.139	337.169	337.139	6585.07	926.224	
283.580		7069.11		6130.31	476.089	333.684	333.711	333.684	6272.74	796.370	
283.560		6712.97		5835.92	470.283	330.402	330.427	330.402	5975.83	737.141	
283.540		6387.41		5556.45	464.711	327.291	327.314	327.291	5693.90	693.517	
283.520		6271.94		5291.43	459.360	324.339	324.361	324.339	5426.47	845.467	
283.500		5919.80		5040.37	454.219	321.541	321.561	321.541	5173.07	746.730	
283.480		5511.06		4802.78	449.289	318.898	318.917	318.898	4933.18	577.877	
283.460		5262.68		4578.13	444.558	316.402	316.419	316.402	4706.30	556.377	
283.440		4984.57		4365.89	440.015	314.045	314.061	314.045	4491.88	492.688	
283.420		4844.22		4165.54	435.656	311.824	311.838	311.824	4289.38	554.840	
283.400		4378.32		3976.52	431.464	309.727	309.739	309.727	4098.27	280.049	
283.380		4206.83		3798.31	427.429	307.743	307.755	307.743	3918.01	288.817	
283.360		3854.68		3630.37	423.543	305.868	305.879	305.868	3748.06	106.629	
283.340		3706.63		3472.19	419.802	304.101	304.111	304.101	3587.90	118.729	
283.320		3627.45		3323.24	416.198	302.435	302.444	302.435	3437.02	190.434	
283.300		3584.86		3183.05	412.722	300.863	300.871	300.863	3294.92	289.946	
283.280		3333.33		3051.12	409.368	299.383	299.391	299.383	3161.11	172.224	
283.260		2942.61		2926.98	406.130	297.989	297.996	297.989	3035.13	-92.5199	
283.240		2677.36		2810.18	403.006	296.681	296.687	296.681	2916.51	-239.158	
283.220		2478.42		2700.30	399.987	295.454	295.459	295.454	2804.84	-326.420	
283.200		2280.91		2596.91	397.066	294.300	294.305	294.300	2699.68	-418.769	
283.180		2168.58		2499.61	394.238	293.218	293.222	293.218	2600.64	-432.058	
283.160		2087.12		2408.04	391.497	292.203	292.207	292.203	2507.34	-420.215	
283.140		2008.52		2321.82	388.840	291.254	291.258	291.254	2419.41	-410.892	
283.120		1929.63		2240.62	386.259	290.364	290.368	290.364	2336.52	-406.886	
283.100		1882.75		2164.11	383.749	289.530	289.533	289.530	2258.33	-375.575	
283.080		1741.55		2091.98	381.300	288.745	288.747	288.745	2184.54	-442.986	
283.060		1610.07		2023.96	378.912	288.008	288.010	288.008	2114.86	-504.790	
283.040		1580.63		1959.76	376.583	287.319	287.321	287.319	2049.03	-468.398	
283.020		1440.86		1899.15	374.310	286.677	286.680	286.677	1986.79	-545.927	
283.000		1419.42		1841.89	372.090	286.080	286.082	286.080	1927.90	-508.477	
282.980		1385.13		1787.75	369.914	285.521	285.523	285.521	1872.14	-487.015	
282.960		1294.23		1736.51	367.779	284.997	284.999	284.997	1819.30	-525.063	
282.940		1204.20		1687.99	365.680	284.504	284.505	284.504	1769.17	-564.976	
282.920		1128.74		1642.01	363.612	284.039	284.040	284.039	1721.59	-592.850	
282.900		1100.44		1598.40	361.576	283.601	283.603	283.601	1676.37	-575.934	
282.880		1096.15		1557.00	359.566	283.189	283.190	283.189	1633.38	-537.223	
282.860		1127.31		1517.66	357.581	282.799	282.799	282.799	1592.45	-465.137	
282.840		992.969		1480.26	355.619	282.431	282.432	282.431	1553.45	-560.480	
282.820		936.946		1444.67	353.680	282.085	282.086	282.085	1516.26	-579.315	
282.800		931.230		1410.76	351.762	281.760	281.760	281.760	1480.77	-549.536	
282.780		859.772		1378.44	349.863	281.452	281.453	281.452	1446.86	-587.083	
282.760		808.323		1347.61	347.983	281.164	281.164	281.164	1414.43	-606.107	
282.740		745.441		1318.17	346.118	280.891	280.891	280.891	1383.39	-637.954	
282.720		743.154		1290.03	344.269	280.633	280.633	280.633	1353.67	-610.511	
282.700		691.705		1263.12	342.436	280.389	280.389	280.389	1325.16	-633.458	
282.680		631.395		1237.35	340.617	280.159	280.160	280.159	1297.81	-666.418	
282.660		708.283		1212.68	338.814	279.942	279.942	279.942	1271.55	-563.264	
282.640		745.155		1189.01	337.023	279.736	279.736	279.736	1246.30	-501.147	
282.620		675.985		1166.31	335.247	279.540	279.540	279.540	1222.02	-546.034	
282.600		644.258		1144.51	333.484	279.355	279.355	279.355	1198.64	-554.386	
282.580		615.675		1123.57	331.737	279.180	279.180	279.180	1176.13	-560.453	
282.560		576.230		1103.43	330.007	279.016	279.016	279.016	1154.42	-578.194	
282.540		545.933		1084.06	328.293	278.861	278.861	278.861	1133.49	-587.556	
282.520		588.807		1065.40	326.595	278.715	278.715	278.715	1113.28	-524.474	
282.500		562.797		1047.43	324.916	278.577	278.578	278.577	1093.76	-530.968	
282.480		575.659		1030.10	323.255	278.447	278.448	278.447	1074.90	-499.244	
282.460		527.354		1013.38	321.612	278.324	278.324	278.324	1056.66	-529.309	
282.440		497.342		997.233	319.988	278.207	278.207	278.207	1039.01	-541.672	
282.420		519.351		981.638	318.385	278.095	278.095	278.095	1021.93	-502.577	
282.400		492.769		966.563	316.802	277.988	277.988	277.988	1005.38	-512.608	
282.380		541.645		951.981	315.242	277.886	277.886	277.886	989.337	-447.692	
282.360		506.774		937.869	313.707	277.790	277.790	277.790	973.786	-467.012	
282.340		406.734		924.203	312.198	277.700	277.700	277.700	958.701	-551.967	
282.320		426.456		910.959	310.715	277.614	277.614	277.614	944.059	-517.603	
282.300		442.177		898.115	309.258	277.532	277.532	277.532	929.841	-487.664	
282.280		388.441		885.652	307.829	277.453	277.454	277.453	916.028	-527.587	
282.260		373.864		873.551	306.430	277.379	277.379	277.379	902.602	-528.738	
282.240		380.152		861.793	305.062	277.308	277.308	277.308	889.547	-509.395	
282.220		400.160		850.359	303.724	277.240	277.240	277.240	876.843	-476.683	
282.200		383.582		839.234	302.419	277.175	277.175	277.175	864.478	-480.896	
282.180		383.296		828.401	301.146	277.113	277.113	277.113	852.434	-469.138	
282.160		397.016		817.842	299.907	277.053	277.053	277.053	840.696	-443.680	
282.140		391.299		807.544	298.701	276.994	276.994	276.994	829.251	-437.951	
282.120		371.863		797.492	297.530	276.938	276.938	276.938	818.084	-446.221	
282.100		403.018		787.674	296.396	276.886	276.886	276.886	807.183	-404.165	
282.080		420.740		778.074	295.299	276.837	276.837	276.837	796.536	-375.797	
282.060		373.292		768.679	294.237	276.789	276.789	276.789	786.127	-412.835	
282.040		326.416		759.475	293.212	276.742	276.742	276.742	775.945	-449.528	
282.020		362.145		750.450	292.224	276.698	276.698	276.698	765.976	-403.831	
282.000		418.167		741.591	291.272	276.654	276.654	276.654	756.209	-338.042	
281.980		377.865		732.886	290.354	276.610	276.610	276.610	746.630	-368.764	
281.960		402.733		724.322	289.472	276.566	276.566	276.566	737.227	-334.495	
281.940		383.868		715.889	288.626	276.523	276.523	276.523	727.992	-344.124	
281.920		398.159		707.578	287.815	276.482	276.482	276.482	718.912	-320.752	
281.900		371.006		699.376	287.040	276.441	276.441	276.441	709.976	-338.970	
281.880		349.854		691.274	286.300	276.401	276.401	276.401	701.173	-351.319	
281.860		310.982		683.262	285.593	276.361	276.361	276.361	692.494	-381.513	
281.840		358.429		675.329	284.920	276.321	276.321	276.321	683.928	-325.499	
281.820		330.990		667.468	284.280	276.283	276.283	276.283	675.466	-344.476	
281.800		315.555		659.670	283.671	276.244	276.244	276.244	667.097	-351.542	
281.780		356.428		651.925	283.093	276.205	276.205	276.205	658.813	-302.384	
281.760		381.010		644.225	282.545	276.165	276.165	276.165	650.604	-269.595	
281.740		386.154		636.565	282.025	276.126	276.126	276.126	642.464	-256.310	
281.720		328.703		628.938	281.535	276.088	276.088	276.088	634.386	-305.683	
281.700		321.271		621.339	281.073	276.050	276.050	276.050	626.362	-305.091	
281.680		335.849		613.762	280.639	276.014	276.014	276.014	618.387	-282.539	
281.660		377.865		606.202	280.231	275.978	275.978	275.978	610.455	-232.589	
281.640		354.713		598.655	279.847	275.943	275.943	275.943	602.558	-247.845	
281.620		349.854		591.117	279.487	275.909	275.909	275.909	594.695	-244.841	
281.600		365.861		583.586	279.151	275.876	275.876	275.876	586.861	-221.001	
281.580		408.449		576.059	278.836	275.843	275.843	275.843	579.052	-170.603	
281.560		394.158		568.534	278.542	275.811	275.811	275.811	571.265	-177.108	
281.540		359.287		561.012	278.267	275.779	275.779	275.779	563.500	-204.214	
281.520		355.857		553.491	278.011	275.747	275.747	275.747	555.755	-199.899	
281.500		350.140		545.973	277.772	275.715	275.715	275.715	548.030	-197.890	
281.480		338.135		538.460	277.549	275.684	275.684	275.684	540.325	-202.190	
281.460		315.269		530.953	277.343	275.653	275.653	275.653	532.643	-217.374	
281.440		361.859		523.456	277.150	275.622	275.622	275.622	524.984	-163.125	
281.420		386.154		515.972	276.970	275.591	275.591	275.591	517.351	-131.196	
281.400		294.118		508.505	276.804	275.561	275.561	275.561	509.748	-215.630	
281.380		281.827		501.061	276.650	275.531	275.531	275.531	502.180	-220.353	
281.360		322.415		493.647	276.507	275.502	275.502	275.502	494.652	-172.237	
281.340		328.131		486.267	276.376	275.474	275.474	275.474	487.169	-159.038	
281.320		299.263		478.929	276.255	275.448	275.448	275.448	479.737	-180.474	
281.300		300.692		471.640	276.145	275.422	275.422	275.422	472.362	-171.671	
281.280		357.857		464.406	276.043	275.398	275.398	275.398	465.051	-107.194	
281.260		349.283		457.236	275.949	275.374	275.374	275.374	457.811	-108.528	
281.240		351.569		450.137	275.863	275.351	275.351	275.351	450.649	-99.0795	
281.220		341.851		443.117	275.783	275.328	275.328	275.328	443.572	-101.721	
281.200		326.702		436.184	275.710	275.306	275.306	275.306	436.588	-109.886	
281.180		327.560		429.347	275.642	275.284	275.284	275.284	429.705	-102.145	
281.160		321.271		422.614	275.580	275.263	275.263	275.263	422.931	-101.659	
281.140		302.978		415.995	275.523	275.244	275.244	275.244	416.274	-113.295	
281.120		289.830		409.494	275.471	275.225	275.225	275.225	409.740	-119.910	
281.100		297.262		403.121	275.422	275.205	275.205	275.205	403.338	-106.076	
281.080		329.846		396.884	275.377	275.187	275.187	275.187	397.074	-67.2279	
281.060		350.998		390.788	275.334	275.168	275.168	275.168	390.955	-39.9574	
281.040		346.996		384.840	275.294	275.148	275.148	275.148	384.986	-37.9906	
281.020		283.828		379.047	275.257	275.129	275.129	275.129	379.175	-95.3473	
281.000		324.701		373.416	275.222	275.110	275.110	275.110	373.527	-48.8261	
280.980		323.272		367.951	275.190	275.093	275.093	275.093	368.048	-44.7761	
280.960		286.686		362.657	275.161	275.076	275.076	275.076	362.742	-76.0560	
280.940		313.268		357.539	275.133	275.060	275.060	275.060	357.612	-44.3438	
280.920		305.265		352.598	275.108	275.044	275.044	275.044	352.661	-47.3964	
280.900		289.544		347.838	275.084	275.029	275.029	275.029	347.893	-58.3483	
280.880		287.258		343.261	275.062	275.014	275.014	275.014	343.308	-56.0505	
280.860		283.542		338.868	275.041	275.000	275.000	275.000	338.909	-55.3668	
280.840		341.565		334.659	275.021	274.986	274.986	274.986	334.694	6.87098	
280.820		319.842		330.634	275.001	274.971	274.971	274.971	330.664	-10.8220	
280.800		305.837		326.793	274.983	274.957	274.957	274.957	326.819	-20.9827	
280.780		304.979		323.137	274.966	274.944	274.944	274.944	323.159	-18.1802	
280.760		295.833		319.662	274.951	274.932	274.932	274.932	319.681	-23.8486	
280.740		295.833		316.364	274.936	274.919	274.919	274.919	316.381	-20.5482	
280.720		323.844		313.242	274.921	274.907	274.907	274.907	313.256	10.5874	
280.700		298.405		310.292	274.906	274.894	274.894	274.894	310.304	-11.8990	
280.680		303.836		307.510	274.890	274.880	274.880	274.880	307.520	-3.68382	
280.660		272.681		304.891	274.875	274.866	274.866	274.866	304.899	-32.2187	
280.640		280.970		302.431	274.860	274.853	274.853	274.853	302.438	-21.4689	
280.620		308.123		300.126	274.846	274.840	274.840	274.840	300.132	7.99143	
280.600		324.701		297.969	274.831	274.826	274.826	274.826	297.974	26.7270	
280.580		295.261		295.956	274.817	274.813	274.813	274.813	295.961	-0.699559	
280.560		251.243		294.082	274.804	274.800	274.800	274.800	294.086	-42.8422	
280.540		311.553		292.340	274.792	274.789	274.789	274.789	292.343	19.2098	
280.520		336.992		290.726	274.781	274.778	274.778	274.778	290.728	46.2638	
280.500		320.128		289.231	274.770	274.768	274.768	274.768	289.233	30.8947	
280.480		333.848		287.850	274.760	274.758	274.758	274.758	287.852	45.9955	
280.460		320.128		286.577	274.749	274.748	274.748	274.748	286.579	33.5492	
280.440		313.554		285.407	274.739	274.738	274.738	274.738	285.408	28.1462	
280.420		296.404		284.332	274.730	274.729	274.729	274.729	284.333	12.0715	
280.400		295.547		283.347	274.720	274.719	274.719	274.719	283.348	12.1991	
280.380		286.972		282.446	274.710	274.709	274.709	274.709	282.447	4.52525	
280.360		273.252		281.623	274.699	274.698	274.698	274.698	281.624	-8.37141	
280.340		286.686		280.874	274.688	274.688	274.688	274.688	280.874	5.81195	
280.320		270.966		280.193	274.678	274.678	274.678	274.678	280.193	-9.22779	
280.300		250.672		279.576	274.669	274.668	274.668	274.668	279.576	-28.9044	
280.280		278.111		279.017	274.658	274.658	274.658	274.658	279.017	-0.905549	
280.260		298.405		278.511	274.648	274.648	274.648	274.648	278.512	19.8935	
280.240		309.267		278.057	274.639	274.639	274.639	274.639	278.057	31.2098	
280.220		290.688		277.647	274.630	274.630	274.630	274.630	277.648	13.0401	
280.200		285.829		277.281	274.622	274.622	274.622	274.622	277.281	8.54771	
280.180		307.552		276.953	274.614	274.614	274.614	274.614	276.953	30.5988	
280.160		290.402		276.660	274.608	274.608	274.608	274.608	276.660	13.7417	
280.140		327.560		276.400	274.602	274.602	274.602	274.602	276.400	51.1599	
280.120		290.688		276.167	274.596	274.596	274.596	274.596	276.167	14.5204	
280.100		304.122		275.961	274.590	274.590	274.590	274.590	275.961	28.1606	
280.080		272.109		275.778	274.584	274.584	274.584	274.584	275.778	-3.66888	
280.060		281.827		275.615	274.578	274.578	274.578	274.578	275.615	6.21172	
280.040		297.833		275.471	274.572	274.572	274.572	274.572	275.471	22.3621	
280.020		294.118		275.343	274.564	274.564	274.564	274.564	275.343	18.7744	
280.000		309.838		275.230	274.558	274.558	274.558	274.558	275.230	34.6080	
279.980		281.827		275.131	274.552	274.552	274.552	274.552	275.131	6.69560	
279.960		287.544		275.045	274.546	274.546	274.546	274.546	275.045	12.4988	
279.940		264.677		274.968	274.540	274.540	274.540	274.540	274.968	-10.2912	
279.920		255.245		274.901	274.535	274.535	274.535	274.535	274.901	-19.6564	
279.900		310.982		274.843	274.530	274.530	274.530	274.530	274.843	36.1383	
279.880		269.251		274.793	274.525	274.525	274.525	274.525	274.793	-5.54245	
279.860		282.113		274.749	274.522	274.522	274.522	274.522	274.749	7.36336	
279.840		284.399		274.711	274.517	274.517	274.517	274.517	274.711	9.68851	
279.820		282.970		274.677	274.513	274.513	274.513	274.513	274.677	8.29302	
279.800		298.405		274.648	274.509	274.509	274.509	274.509	274.648	23.7574	
279.780		267.536		274.622	274.504	274.504	274.504	274.504	274.622	-7.08604	
279.760		248.099		274.599	274.501	274.501	274.501	274.501	274.599	-26.5002	
279.740		287.544		274.580	274.497	274.497	274.497	274.497	274.580	12.9634	
279.720		298.119		274.564	274.494	274.494	274.494	274.494	274.564	23.5552	
279.700		291.831		274.550	274.492	274.492	274.492	274.492	274.550	17.2807	
279.680		258.389		274.539	274.490	274.490	274.490	274.490	274.539	-16.1498	
279.660		246.384		274.528	274.487	274.487	274.487	274.487	274.528	-28.1439	
279.640		306.980		274.518	274.484	274.484	274.484	274.484	274.518	32.4618	
279.620		318.413		274.510	274.482	274.482	274.482	274.482	274.510	43.9032	
279.600		300.978		274.502	274.479	274.479	274.479	274.479	274.502	26.4751	
279.580		280.398		274.496	274.477	274.477	274.477	274.477	274.496	5.90192	
279.560		286.400		274.490	274.474	274.474	274.474	274.474	274.490	11.9104	
279.540		256.960		274.484	274.471	274.471	274.471	274.471	274.484	-17.5239	
279.520		281.827		274.479	274.468	274.468	274.468	274.468	274.479	7.34825	
279.500		272.395		274.474	274.465	274.465	274.465	274.465	274.474	-2.07936	
279.480		253.530		274.469	274.462	274.462	274.462	274.462	274.469	-20.9392	
279.460		260.676		274.465	274.459	274.459	274.459	274.459	274.465	-13.7889	
279.440		308.123		274.460	274.456	274.456	274.456	274.456	274.460	33.6628	
279.420		287.258		274.457	274.453	274.453	274.453	274.453	274.457	12.8007	
279.400		271.823		274.453	274.450	274.450	274.450	274.450	274.453	-2.63027	
279.380		275.253		274.450	274.447	274.447	274.447	274.447	274.450	0.803429	
279.360		274.967		274.447	274.444	274.444	274.444	274.444	274.447	0.520626	
279.340		298.405		274.444	274.442	274.442	274.442	274.442	274.444	23.9610	
279.320		311.267		274.442	274.441	274.441	274.441	274.441	274.442	36.8252	
279.300		267.250		274.440	274.439	274.439	274.439	274.439	274.440	-7.19046	
279.280		273.538		274.438	274.438	274.438	274.438	274.438	274.438	-0.900491	
279.260		274.110		274.437	274.436	274.436	274.436	274.436	274.437	-0.327045	
279.240		284.685		274.435	274.434	274.434	274.434	274.434	274.435	10.2503	
279.220		293.260		274.433	274.433	274.433	274.433	274.433	274.433	18.8269	
279.200		254.387		274.431	274.431	274.431	274.431	274.431	274.431	-20.0435	
279.180		290.116		274.428	274.428	274.428	274.428	274.428	274.428	15.6877	
279.160		252.958		274.426	274.426	274.426	274.426	274.426	274.426	-21.4681	
279.140		272.681		274.425	274.424	274.424	274.424	274.424	274.425	-1.74412	
279.120		288.687		274.423	274.423	274.423	274.423	274.423	274.423	14.2642	
279.100		281.541		274.421	274.421	274.421	274.421	274.421	274.421	7.12048	
279.080		280.398		274.419	274.419	274.419	274.419	274.419	274.419	5.97927	
279.060		279.255		274.417	274.417	274.417	274.417	274.417	274.417	4.83748	
279.040		262.105		274.417	274.417	274.417	274.417	274.417	274.417	-12.3118	
279.020		255.531		274.416	274.416	274.416	274.416	274.416	274.416	-18.8851	
279.000		272.109		0.000000	0.000000	0.000000	0.000000	0.000000	272.109	-3.11637e-005	
