?
Axis	Energy	Elements=	1001
Axis	Position	Elements=	1
Axis	X	Elements=	1
Axis	Y	Elements=	1

C:\Users\AG Wittstock\Documents\Iza\06_27.01.2017\AgProbe_01\Mono 250µm\Multi Point\Ag3d Scan.VGD


	Position (Pos)\	Pt #002	
	X (X)\µm	22667.7	
	Y (Y)\µm	7958.70	
Binding Energy (E)	
eV		Counts / s
380.000		39.3491	
379.980		36.6813	
379.960		26.6773	
379.940		40.0160	
379.920		58.0232	
379.900		49.3531	
379.880		42.0168	
379.860		52.6877	
379.840		86.7013	
379.820		64.6925	
379.800		43.3507	
379.780		42.0168	
379.760		26.6773	
379.740		41.3499	
379.720		48.6861	
379.700		50.0200	
379.680		68.6941	
379.660		54.0216	
379.640		54.6885	
379.620		51.3539	
379.600		55.3555	
379.580		43.3507	
379.560		50.6869	
379.540		46.6853	
379.520		58.0232	
379.500		67.3603	
379.480		48.0192	
379.460		42.0168	
379.440		58.6901	
379.420		51.3539	
379.400		74.0296	
379.380		74.6965	
379.360		58.6901	
379.340		66.6933	
379.320		39.3491	
379.300		43.3507	
379.280		48.0192	
379.260		51.3539	
379.240		52.6877	
379.220		52.0208	
379.200		58.0232	
379.180		48.6861	
379.160		66.0264	
379.140		60.0240	
379.120		65.3595	
379.100		40.6829	
379.080		56.6893	
379.060		42.6837	
379.040		35.3475	
379.020		76.6973	
379.000		80.0320	
378.980		59.3571	
378.960		41.3499	
378.940		31.3459	
378.920		38.6821	
378.900		52.0208	
378.880		51.3539	
378.860		54.6885	
378.840		54.0216	
378.820		74.6965	
378.800		76.6973	
378.780		71.3619	
378.760		68.6941	
378.740		66.0264	
378.720		39.3491	
378.700		54.0216	
378.680		46.6853	
378.660		56.6893	
378.640		53.3547	
378.620		83.3667	
378.600		72.0288	
378.580		42.6837	
378.560		56.0224	
378.540		70.6949	
378.520		49.3531	
378.500		48.0192	
378.480		46.6853	
378.460		37.3483	
378.440		63.3587	
378.420		57.3563	
378.400		71.3619	
378.380		71.3619	
378.360		61.3579	
378.340		41.3499	
378.320		38.0152	
378.300		60.0240	
378.280		84.7005	
378.260		36.6813	
378.240		26.6773	
378.220		40.0160	
378.200		50.6869	
378.180		22.0088	
378.160		55.3555	
378.140		73.3627	
378.120		69.3611	
378.100		61.3579	
378.080		50.0200	
378.060		45.3515	
378.040		53.3547	
378.020		56.6893	
378.000		47.3523	
377.980		65.3595	
377.960		56.0224	
377.940		101.374	
377.920		85.3675	
377.900		60.6909	
377.880		48.6861	
377.860		37.3483	
377.840		46.6853	
377.820		57.3563	
377.800		84.7005	
377.780		106.709	
377.760		68.6941	
377.740		52.0208	
377.720		41.3499	
377.700		42.6837	
377.680		46.0184	
377.660		66.0264	
377.640		48.6861	
377.620		99.3731	
377.600		74.0296	
377.580		26.0104	
377.560		72.0288	
377.540		82.6997	
377.520		71.3619	
377.500		64.0256	
377.480		51.3539	
377.460		75.3635	
377.440		62.0248	
377.420		71.3619	
377.400		44.6845	
377.380		51.3539	
377.360		42.0168	
377.340		52.0208	
377.320		68.0272	
377.300		78.0312	
377.280		65.3595	
377.260		60.6909	
377.240		49.3531	
377.220		70.6949	
377.200		52.0208	
377.180		70.0280	
377.160		46.6853	
377.140		64.6925	
377.120		80.0320	
377.100		53.3547	
377.080		44.6845	
377.060		56.6893	
377.040		89.3691	
377.020		61.3579	
377.000		43.3507	
376.980		62.6917	
376.960		71.3619	
376.940		68.6941	
376.920		69.3611	
376.900		64.6925	
376.880		60.0240	
376.860		36.0144	
376.840		30.0120	
376.820		71.3619	
376.800		72.0288	
376.780		43.3507	
376.760		53.3547	
376.740		43.3507	
376.720		53.3547	
376.700		42.6837	
376.680		42.6837	
376.660		50.0200	
376.640		60.0240	
376.620		63.3587	
376.600		57.3563	
376.580		44.6845	
376.560		32.0128	
376.540		81.3659	
376.520		58.6901	
376.500		52.0208	
376.480		53.3547	
376.460		48.0192	
376.440		78.0312	
376.420		68.6941	
376.400		74.6965	
376.380		52.0208	
376.360		66.0264	
376.340		54.0216	
376.320		66.0264	
376.300		60.0240	
376.280		32.6797	
376.260		42.0168	
376.240		55.3555	
376.220		68.0272	
376.200		69.3611	
376.180		74.0296	
376.160		56.0224	
376.140		42.0168	
376.120		45.3515	
376.100		65.3595	
376.080		41.3499	
376.060		40.0160	
376.040		62.0248	
376.020		75.3635	
376.000		62.6917	
375.980		69.3611	
375.960		43.3507	
375.940		51.3539	
375.920		69.3611	
375.900		44.0176	
375.880		46.0184	
375.860		72.0288	
375.840		41.3499	
375.820		44.6845	
375.800		47.3523	
375.780		62.0248	
375.760		67.3603	
375.740		78.0312	
375.720		58.0232	
375.700		89.3691	
375.680		61.3579	
375.660		60.0240	
375.640		54.0216	
375.620		61.3579	
375.600		74.0296	
375.580		44.0176	
375.560		44.0176	
375.540		64.6925	
375.520		62.0248	
375.500		54.6885	
375.480		59.3571	
375.460		85.3675	
375.440		84.0336	
375.420		61.3579	
375.400		60.6909	
375.380		59.3571	
375.360		56.0224	
375.340		99.3731	
375.320		102.041	
375.300		46.0184	
375.280		45.3515	
375.260		31.3459	
375.240		54.6885	
375.220		88.0352	
375.200		75.3635	
375.180		66.0264	
375.160		101.374	
375.140		65.3595	
375.120		59.3571	
375.100		72.6957	
375.080		72.0288	
375.060		92.7037	
375.040		50.0200	
375.020		40.0160	
375.000		73.3627	
374.980		64.6925	
374.960		99.3731	
374.940		124.717	
374.920		93.3707	
374.900		98.0392	
374.880		108.710	
374.860		68.0272	
374.840		91.3699	
374.820		98.0392	
374.800		119.381	
374.780		91.3699	
374.760		119.381	
374.740		135.387	
374.720		144.058	
374.700		137.388	
374.680		117.380	
374.660		113.379	
374.640		139.389	
374.620		172.736	
374.600		158.063	
374.580		170.735	
374.560		170.068	
374.540		146.725	
374.520		208.083	
374.500		192.744	
374.480		226.757	
374.460		269.441	
374.440		254.102	
374.420		250.100	
374.400		286.114	
374.380		283.447	
374.360		254.102	
374.340		287.448	
374.320		375.484	
374.300		304.122	
374.280		364.146	
374.260		451.514	
374.240		442.177	
374.220		433.507	
374.200		451.514	
374.180		494.198	
374.160		539.549	
374.140		412.832	
374.120		416.833	
374.100		484.194	
374.080		510.204	
374.060		524.877	
374.040		602.908	
374.020		581.566	
374.000		585.568	
373.980		438.175	
373.960		514.873	
373.940		510.204	
373.920		509.537	
373.900		436.841	
373.880		444.845	
373.860		406.829	
373.840		418.834	
373.820		401.494	
373.800		364.146	
373.780		307.456	
373.760		296.118	
373.740		329.465	
373.720		340.803	
373.700		327.464	
373.680		265.440	
373.660		244.098	
373.640		239.429	
373.620		224.757	
373.600		206.082	
373.580		211.418	
373.560		167.400	
373.540		180.739	
373.520		168.734	
373.500		136.054	
373.480		152.061	
373.460		120.048	
373.440		109.377	
373.420		121.382	
373.400		89.3691	
373.380		91.3699	
373.360		84.7005	
373.340		67.3603	
373.320		71.3619	
373.300		45.3515	
373.280		60.6909	
373.260		76.6973	
373.240		81.3659	
373.220		64.6925	
373.200		80.6989	
373.180		90.7029	
373.160		60.6909	
373.140		60.6909	
373.120		86.7013	
373.100		59.3571	
373.080		40.6829	
373.060		32.0128	
373.040		51.3539	
373.020		72.0288	
373.000		62.6917	
372.980		56.0224	
372.960		63.3587	
372.940		48.0192	
372.920		48.6861	
372.900		56.0224	
372.880		30.0120	
372.860		22.0088	
372.840		34.0136	
372.820		50.6869	
372.800		51.3539	
372.780		41.3499	
372.760		47.3523	
372.740		72.0288	
372.720		46.6853	
372.700		36.6813	
372.680		32.6797	
372.660		57.3563	
372.640		37.3483	
372.620		36.6813	
372.600		62.0248	
372.580		56.6893	
372.560		40.0160	
372.540		33.3467	
372.520		44.0176	
372.500		46.0184	
372.480		33.3467	
372.460		56.0224	
372.440		49.3531	
372.420		27.3443	
372.400		37.3483	
372.380		50.0200	
372.360		48.0192	
372.340		44.0176	
372.320		32.6797	
372.300		28.0112	
372.280		50.0200	
372.260		48.0192	
372.240		43.3507	
372.220		30.0120	
372.200		36.0144	
372.180		45.3515	
372.160		69.3611	
372.140		40.6829	
372.120		68.6941	
372.100		58.6901	
372.080		46.6853	
372.060		64.0256	
372.040		44.6845	
372.020		58.0232	
372.000		76.6973	
371.980		56.0224	
371.960		48.6861	
371.940		58.6901	
371.920		40.0160	
371.900		35.3475	
371.880		35.3475	
371.860		53.3547	
371.840		40.6829	
371.820		51.3539	
371.800		46.0184	
371.780		38.6821	
371.760		24.6765	
371.740		34.0136	
371.720		49.3531	
371.700		80.6989	
371.680		52.6877	
371.660		50.0200	
371.640		55.3555	
371.620		62.6917	
371.600		56.0224	
371.580		16.0064	
371.560		35.3475	
371.540		51.3539	
371.520		60.6909	
371.500		52.6877	
371.480		54.0216	
371.460		42.0168	
371.440		46.6853	
371.420		47.3523	
371.400		63.3587	
371.380		55.3555	
371.360		23.3427	
371.340		54.0216	
371.320		38.0152	
371.300		30.0120	
371.280		21.3419	
371.260		21.3419	
371.240		44.0176	
371.220		42.0168	
371.200		53.3547	
371.180		38.6821	
371.160		39.3491	
371.140		52.6877	
371.120		35.3475	
371.100		52.6877	
371.080		41.3499	
371.060		31.3459	
371.040		46.0184	
371.020		53.3547	
371.000		38.0152	
370.980		30.0120	
370.960		34.6805	
370.940		24.6765	
370.920		29.3451	
370.900		58.0232	
370.880		36.6813	
370.860		25.3435	
370.840		26.0104	
370.820		34.0136	
370.800		34.6805	
370.780		39.3491	
370.760		46.0184	
370.740		38.0152	
370.720		42.0168	
370.700		31.3459	
370.680		43.3507	
370.660		44.0176	
370.640		38.0152	
370.620		38.0152	
370.600		40.6829	
370.580		36.6813	
370.560		35.3475	
370.540		53.3547	
370.520		24.0096	
370.500		26.6773	
370.480		29.3451	
370.460		30.6789	
370.440		52.0208	
370.420		41.3499	
370.400		30.0120	
370.380		23.3427	
370.360		28.0112	
370.340		16.6733	
370.320		43.3507	
370.300		43.3507	
370.280		61.3579	
370.260		44.6845	
370.240		50.6869	
370.220		45.3515	
370.200		42.6837	
370.180		30.6789	
370.160		53.3547	
370.140		40.0160	
370.120		32.6797	
370.100		12.0048	
370.080		25.3435	
370.060		38.0152	
370.040		56.0224	
370.020		53.3547	
370.000		24.6765	
369.980		30.0120	
369.960		25.3435	
369.940		37.3483	
369.920		40.6829	
369.900		28.6781	
369.880		25.3435	
369.860		37.3483	
369.840		34.0136	
369.820		36.0144	
369.800		74.6965	
369.780		58.6901	
369.760		58.6901	
369.740		44.6845	
369.720		62.0248	
369.700		48.0192	
369.680		26.0104	
369.660		47.3523	
369.640		54.0216	
369.620		62.6917	
369.600		64.0256	
369.580		70.0280	
369.560		41.3499	
369.540		30.6789	
369.520		40.0160	
369.500		28.0112	
369.480		57.3563	
369.460		72.0288	
369.440		66.0264	
369.420		84.7005	
369.400		34.0136	
369.380		31.3459	
369.360		24.0096	
369.340		52.6877	
369.320		54.0216	
369.300		83.3667	
369.280		78.0312	
369.260		65.3595	
369.240		76.6973	
369.220		52.6877	
369.200		59.3571	
369.180		44.0176	
369.160		62.0248	
369.140		89.3691	
369.120		39.3491	
369.100		61.3579	
369.080		66.6933	
369.060		98.0392	
369.040		121.382	
369.020		102.708	
369.000		84.0336	
368.980		64.0256	
368.960		104.042	
368.940		96.0384	
368.920		115.379	
368.900		108.043	
368.880		115.379	
368.860		108.710	
368.840		110.711	
368.820		134.721	
368.800		127.384	
368.780		119.381	
368.760		134.721	
368.740		130.052	
368.720		165.399	
368.700		171.402	
368.680		153.395	
368.660		176.070	
368.640		152.728	
368.620		194.078	
368.600		207.416	
368.580		218.754	
368.560		221.422	
368.540		268.107	
368.520		251.434	
368.500		272.776	
368.480		325.464	
368.460		360.144	
368.440		408.163	
368.420		360.144	
368.400		386.821	
368.380		432.840	
368.360		538.215	
368.340		511.538	
368.320		525.544	
368.300		440.843	
368.280		590.903	
368.260		540.216	
368.240		561.558	
368.220		677.604	
368.200		669.601	
368.180		646.259	
368.160		744.965	
368.140		717.620	
368.120		643.591	
368.100		667.600	
368.080		686.941	
368.060		675.604	
368.040		722.289	
368.020		772.976	
368.000		750.967	
367.980		708.950	
367.960		732.960	
367.940		705.616	
367.920		661.598	
367.900		578.231	
367.880		602.241	
367.860		546.218	
367.840		584.234	
367.820		532.880	
367.800		556.889	
367.780		464.186	
367.760		394.825	
367.740		384.154	
367.720		408.830	
367.700		360.811	
367.680		364.813	
367.660		291.450	
367.640		277.444	
367.620		278.111	
367.600		290.116	
367.580		268.774	
367.560		261.438	
367.540		178.071	
367.520		196.078	
367.500		174.070	
367.480		181.406	
367.460		212.752	
367.440		170.068	
367.420		181.406	
367.400		153.395	
367.380		178.738	
367.360		131.386	
367.340		76.0304	
367.320		118.714	
367.300		114.713	
367.280		100.040	
367.260		101.374	
367.240		102.708	
367.220		81.3659	
367.200		128.718	
367.180		68.0272	
367.160		46.6853	
367.140		61.3579	
367.120		64.6925	
367.100		46.0184	
367.080		66.0264	
367.060		50.6869	
367.040		62.0248	
367.020		66.6933	
367.000		62.0248	
366.980		31.3459	
366.960		41.3499	
366.940		58.0232	
366.920		63.3587	
366.900		49.3531	
366.880		60.6909	
366.860		41.3499	
366.840		56.6893	
366.820		31.3459	
366.800		23.3427	
366.780		24.0096	
366.760		18.6741	
366.740		34.6805	
366.720		34.0136	
366.700		41.3499	
366.680		38.0152	
366.660		48.0192	
366.640		60.6909	
366.620		54.6885	
366.600		40.6829	
366.580		36.0144	
366.560		22.0088	
366.540		22.0088	
366.520		30.0120	
366.500		33.3467	
366.480		15.3395	
366.460		24.6765	
366.440		32.0128	
366.420		32.0128	
366.400		17.3403	
366.380		19.3411	
366.360		19.3411	
366.340		27.3443	
366.320		24.0096	
366.300		20.0080	
366.280		20.6749	
366.260		10.0040	
366.240		10.0040	
366.220		25.3435	
366.200		14.0056	
366.180		17.3403	
366.160		10.6709	
366.140		2.66773	
366.120		14.0056	
366.100		6.00240	
366.080		16.6733	
366.060		15.3395	
366.040		25.3435	
366.020		36.6813	
366.000		52.6877	
365.980		22.6757	
365.960		26.0104	
365.940		54.0216	
365.920		32.0128	
365.900		14.6725	
365.880		18.6741	
365.860		9.33707	
365.840		15.3395	
365.820		14.6725	
365.800		13.3387	
365.780		15.3395	
365.760		18.6741	
365.740		30.0120	
365.720		40.0160	
365.700		12.6717	
365.680		30.6789	
365.660		31.3459	
365.640		13.3387	
365.620		10.0040	
365.600		12.0048	
365.580		14.6725	
365.560		17.3403	
365.540		24.0096	
365.520		18.6741	
365.500		16.6733	
365.480		8.67013	
365.460		10.6709	
365.440		10.6709	
365.420		26.0104	
365.400		11.3379	
365.380		16.6733	
365.360		14.0056	
365.340		13.3387	
365.320		22.0088	
365.300		20.6749	
365.280		17.3403	
365.260		9.33707	
365.240		9.33707	
365.220		13.3387	
365.200		11.3379	
365.180		17.3403	
365.160		18.0072	
365.140		20.0080	
365.120		21.3419	
365.100		26.6773	
365.080		13.3387	
365.060		0.000000	
365.040		13.3387	
365.020		24.0096	
365.000		31.3459	
364.980		18.0072	
364.960		0.000000	
364.940		20.0080	
364.920		16.6733	
364.900		12.0048	
364.880		22.6757	
364.860		16.6733	
364.840		8.00320	
364.820		16.6733	
364.800		13.3387	
364.780		4.00160	
364.760		9.33707	
364.740		16.6733	
364.720		21.3419	
364.700		18.6741	
364.680		20.0080	
364.660		22.6757	
364.640		12.6717	
364.620		30.6789	
364.600		17.3403	
364.580		18.6741	
364.560		10.6709	
364.540		20.6749	
364.520		10.6709	
364.500		13.3387	
364.480		13.3387	
364.460		13.3387	
364.440		17.3403	
364.420		22.0088	
364.400		14.0056	
364.380		13.3387	
364.360		26.6773	
364.340		22.6757	
364.320		7.33627	
364.300		14.6725	
364.280		8.67013	
364.260		3.33467	
364.240		18.6741	
364.220		17.3403	
364.200		0.666933	
364.180		3.33467	
364.160		8.67013	
364.140		11.3379	
364.120		22.6757	
364.100		26.0104	
364.080		14.0056	
364.060		15.3395	
364.040		34.0136	
364.020		24.0096	
364.000		10.0040	
363.980		24.0096	
363.960		22.6757	
363.940		13.3387	
363.920		31.3459	
363.900		15.3395	
363.880		18.6741	
363.860		14.6725	
363.840		6.66933	
363.820		9.33707	
363.800		16.0064	
363.780		12.0048	
363.760		16.0064	
363.740		10.6709	
363.720		18.0072	
363.700		11.3379	
363.680		10.0040	
363.660		16.0064	
363.640		18.0072	
363.620		6.66933	
363.600		8.67013	
363.580		22.0088	
363.560		24.6765	
363.540		12.6717	
363.520		28.0112	
363.500		10.6709	
363.480		12.6717	
363.460		7.33627	
363.440		2.66773	
363.420		4.00160	
363.400		12.0048	
363.380		8.00320	
363.360		0.000000	
363.340		11.3379	
363.320		11.3379	
363.300		4.00160	
363.280		9.33707	
363.260		10.6709	
363.240		26.0104	
363.220		14.0056	
363.200		5.33547	
363.180		14.6725	
363.160		18.0072	
363.140		2.00080	
363.120		5.33547	
363.100		4.00160	
363.080		26.0104	
363.060		21.3419	
363.040		24.6765	
363.020		20.0080	
363.000		14.6725	
362.980		24.6765	
362.960		12.0048	
362.940		4.00160	
362.920		3.33467	
362.900		2.66773	
362.880		18.0072	
362.860		15.3395	
362.840		9.33707	
362.820		7.33627	
362.800		16.6733	
362.780		20.0080	
362.760		28.6781	
362.740		18.0072	
362.720		8.00320	
362.700		17.3403	
362.680		15.3395	
362.660		10.0040	
362.640		30.0120	
362.620		36.0144	
362.600		20.6749	
362.580		9.33707	
362.560		9.33707	
362.540		8.00320	
362.520		5.33547	
362.500		24.6765	
362.480		18.0072	
362.460		8.00320	
362.440		8.00320	
362.420		2.66773	
362.400		12.6717	
362.380		33.3467	
362.360		26.0104	
362.340		8.67013	
362.320		23.3427	
362.300		20.6749	
362.280		17.3403	
362.260		20.6749	
362.240		16.0064	
362.220		15.3395	
362.200		20.0080	
362.180		16.0064	
362.160		8.67013	
362.140		13.3387	
362.120		10.6709	
362.100		8.00320	
362.080		8.67013	
362.060		32.6797	
362.040		26.0104	
362.020		19.3411	
362.000		12.0048	
361.980		18.6741	
361.960		10.6709	
361.940		19.3411	
361.920		16.6733	
361.900		10.6709	
361.880		24.6765	
361.860		24.0096	
361.840		20.6749	
361.820		16.0064	
361.800		12.0048	
361.780		10.0040	
361.760		6.66933	
361.740		6.66933	
361.720		14.6725	
361.700		15.3395	
361.680		14.0056	
361.660		9.33707	
361.640		3.33467	
361.620		7.33627	
361.600		3.33467	
361.580		3.33467	
361.560		17.3403	
361.540		20.6749	
361.520		20.6749	
361.500		16.6733	
361.480		24.0096	
361.460		12.0048	
361.440		12.0048	
361.420		14.6725	
361.400		22.6757	
361.380		12.0048	
361.360		26.6773	
361.340		10.6709	
361.320		16.6733	
361.300		13.3387	
361.280		16.0064	
361.260		22.0088	
361.240		14.6725	
361.220		4.00160	
361.200		3.33467	
361.180		3.33467	
361.160		0.000000	
361.140		10.0040	
361.120		16.6733	
361.100		14.0056	
361.080		14.6725	
361.060		19.3411	
361.040		12.0048	
361.020		6.66933	
361.000		4.00160	
360.980		14.0056	
360.960		15.3395	
360.940		6.66933	
360.920		16.6733	
360.900		16.0064	
360.880		0.666933	
360.860		4.00160	
360.840		2.66773	
360.820		10.6709	
360.800		18.0072	
360.780		4.66853	
360.760		2.66773	
360.740		16.0064	
360.720		19.3411	
360.700		16.0064	
360.680		11.3379	
360.660		8.00320	
360.640		0.000000	
360.620		2.66773	
360.600		18.0072	
360.580		15.3395	
360.560		12.6717	
360.540		7.33627	
360.520		24.0096	
360.500		6.66933	
360.480		12.0048	
360.460		4.00160	
360.440		12.6717	
360.420		10.6709	
360.400		4.66853	
360.380		5.33547	
360.360		9.33707	
360.340		10.0040	
360.320		12.6717	
360.300		12.0048	
360.280		6.66933	
360.260		12.0048	
360.240		14.0056	
360.220		6.66933	
360.200		16.6733	
360.180		22.0088	
360.160		14.0056	
360.140		16.0064	
360.120		5.33547	
360.100		0.000000	
360.080		6.66933	
360.060		9.33707	
360.040		26.0104	
360.020		15.3395	
360.000		12.6717	
