?
Axis	Energy	Elements=	1001

C:\Users\AG Wittstock\Documents\Iza\06_27.01.2017\PET_03\Polyanalyse.DATA\O1s Scan.VGD





Binding Energy (E)				O1s Scan A	O1s Scan B	Backgnd.	Envelope	Residuals	
eV		Counts / s  (Residuals × 2)		Counts / s  (Residuals × 2)	Counts / s  (Residuals × 2)	Counts / s  (Residuals × 2)	Counts / s  (Residuals × 2)	Counts / s  (Residuals × 2)
545.000		4587.26		4480.69	4480.69	4480.69	4480.69	106.570	
544.980		4542.10		4480.22	4480.22	4480.22	4480.22	61.8837	
544.960		4473.22		4478.87	4478.87	4478.87	4478.87	-5.65146	
544.940		4493.51		4476.80	4476.80	4476.80	4476.80	16.7139	
544.920		4476.36		4473.83	4473.83	4473.83	4473.83	2.53006	
544.900		4528.67		4471.02	4471.02	4471.02	4471.02	57.6522	
544.880		4580.40		4468.04	4468.04	4468.04	4468.04	112.362	
544.860		4335.45		4464.48	4464.48	4464.48	4464.48	-129.036	
544.840		4297.72		4460.52	4460.52	4460.52	4460.52	-162.803	
544.820		4435.20		4455.94	4455.94	4455.94	4455.94	-20.7379	
544.800		4549.53		4450.83	4450.83	4450.83	4450.83	98.7070	
544.780		4506.95		4445.40	4445.40	4445.40	4445.40	61.5422	
544.760		4442.63		4439.95	4439.95	4439.95	4439.95	2.68711	
544.740		4623.85		4434.55	4434.55	4434.55	4434.55	189.299	
544.720		4604.41		4429.25	4429.25	4429.25	4429.25	175.166	
544.700		4647.57		4424.28	4424.28	4424.28	4424.28	223.290	
544.680		4420.91		4419.35	4419.35	4419.35	4419.35	1.55694	
544.660		4485.79		4414.14	4414.14	4414.14	4414.14	71.6591	
544.640		4587.26		4408.84	4408.84	4408.84	4408.84	178.427	
544.620		4541.82		4403.71	4403.71	4403.71	4403.71	138.110	
544.600		4598.12		4398.75	4398.75	4398.75	4398.75	199.378	
544.580		4572.11		4393.25	4393.25	4393.25	4393.25	178.861	
544.560		4501.80		4386.95	4386.95	4386.95	4386.95	114.854	
544.540		4407.76		4380.75	4380.75	4380.75	4380.75	27.0085	
544.520		4368.03		4374.58	4374.58	4374.58	4374.58	-6.54617	
544.500		4435.20		4368.09	4368.09	4368.09	4368.09	67.1132	
544.480		4310.30		4361.47	4361.47	4361.47	4361.47	-51.1733	
544.460		4348.31		4355.08	4355.08	4355.08	4355.08	-6.76663	
544.440		4476.08		4348.75	4348.75	4348.75	4348.75	127.331	
544.420		4384.61		4342.97	4342.97	4342.97	4342.97	41.6426	
544.400		4353.74		4337.20	4337.20	4337.20	4337.20	16.5391	
544.380		4407.76		4331.38	4331.38	4331.38	4331.38	76.3826	
544.360		4398.04		4325.91	4325.91	4325.91	4325.91	72.1384	
544.340		4444.06		4320.76	4320.76	4320.76	4320.76	123.307	
544.320		4261.13		4316.40	4316.40	4316.40	4316.40	-55.2662	
544.300		4410.34		4312.23	4312.23	4312.23	4312.23	98.1015	
544.280		4477.51		4307.90	4307.90	4307.90	4307.90	169.604	
544.260		4347.74		4303.51	4303.51	4303.51	4303.51	44.2326	
544.240		4408.33		4299.32	4299.32	4299.32	4299.32	109.012	
544.220		4449.21		4295.23	4295.23	4295.23	4295.23	153.980	
544.200		4330.30		4291.27	4291.27	4291.27	4291.27	39.0323	
544.180		4292.86		4287.38	4287.38	4287.38	4287.38	5.47885	
544.160		4380.32		4283.57	4283.57	4283.57	4283.57	96.7527	
544.140		4347.74		4279.82	4279.82	4279.82	4279.82	67.9161	
544.120		4316.30		4276.09	4276.09	4276.09	4276.09	40.2101	
544.100		4223.69		4272.39	4272.39	4272.39	4272.39	-48.6983	
544.080		4409.19		4268.85	4268.85	4268.85	4268.85	140.346	
544.060		4460.93		4265.40	4265.40	4265.40	4265.40	195.524	
544.040		4328.59		4261.98	4261.98	4261.98	4261.98	66.6059	
544.020		4197.96		4258.81	4258.81	4258.81	4258.81	-60.8440	
544.000		4308.58		4256.22	4256.22	4256.22	4256.22	52.3631	
543.980		4169.10		4253.75	4253.75	4253.75	4253.75	-84.6567	
543.960		4232.55		4251.41	4251.41	4251.41	4251.41	-18.8550	
543.940		4356.89		4249.14	4249.14	4249.14	4249.14	107.748	
543.920		4272.28		4246.90	4246.90	4246.90	4246.90	25.3810	
543.900		4258.56		4244.65	4244.65	4244.65	4244.65	13.9112	
543.880		4305.15		4242.49	4242.49	4242.49	4242.49	62.6636	
543.860		4254.84		4240.58	4240.58	4240.58	4240.58	14.2651	
543.840		4323.44		4238.92	4238.92	4238.92	4238.92	84.5242	
543.820		4166.24		4236.76	4236.76	4236.76	4236.76	-70.5221	
543.800		4241.98		4234.62	4234.62	4234.62	4234.62	7.36163	
543.780		4201.97		4232.74	4232.74	4232.74	4232.74	-30.7734	
543.760		4231.98		4231.05	4231.05	4231.05	4231.05	0.929577	
543.740		4297.43		4229.23	4229.23	4229.23	4229.23	68.1994	
543.720		4351.74		4227.41	4227.41	4227.41	4227.41	124.330	
543.700		4250.27		4225.51	4225.51	4225.51	4225.51	24.7639	
543.680		4226.26		4223.59	4223.59	4223.59	4223.59	2.66916	
543.660		4280.00		4221.81	4221.81	4221.81	4221.81	58.1883	
543.640		4185.96		4219.96	4219.96	4219.96	4219.96	-33.9984	
543.620		4147.94		4218.03	4218.03	4218.03	4218.03	-70.0854	
543.600		4352.03		4215.97	4215.97	4215.97	4215.97	136.052	
543.580		4329.73		4213.54	4213.54	4213.54	4213.54	116.190	
543.560		4290.57		4211.39	4211.39	4211.39	4211.39	79.1825	
543.540		4174.81		4208.78	4208.78	4208.78	4208.78	-33.9646	
543.520		4187.96		4205.77	4205.77	4205.77	4205.77	-17.8121	
543.500		4240.55		4202.62	4202.62	4202.62	4202.62	37.9293	
543.480		4132.22		4199.52	4199.52	4199.52	4199.52	-67.3006	
543.460		4164.81		4196.28	4196.28	4196.28	4196.28	-31.4693	
543.440		4215.69		4193.10	4193.10	4193.10	4193.10	22.5841	
543.420		4231.41		4189.41	4189.41	4189.41	4189.41	41.9996	
543.400		4220.83		4184.80	4184.80	4184.80	4184.80	36.0323	
543.380		4287.72		4180.02	4180.02	4180.02	4180.02	107.693	
543.360		4300.29		4174.92	4174.92	4174.92	4174.92	125.376	
543.340		4144.80		4169.55	4169.55	4169.55	4169.55	-24.7536	
543.320		4237.41		4164.31	4164.31	4164.31	4164.31	73.0990	
543.300		4281.14		4159.56	4159.56	4159.56	4159.56	121.581	
543.280		4152.80		4154.83	4154.83	4154.83	4154.83	-2.02144	
543.260		4115.93		4149.49	4149.49	4149.49	4149.49	-33.5541	
543.240		4247.13		4143.67	4143.67	4143.67	4143.67	103.455	
543.220		4226.55		4137.64	4137.64	4137.64	4137.64	88.9113	
543.200		4320.87		4131.44	4131.44	4131.44	4131.44	189.427	
543.180		4418.05		4125.52	4125.52	4125.52	4125.52	292.538	
543.160		4210.26		4119.64	4119.64	4119.64	4119.64	90.6193	
543.140		4167.38		4113.64	4113.64	4113.64	4113.64	53.7433	
543.120		4098.78		4107.51	4107.51	4107.51	4107.51	-8.72393	
543.100		4176.53		4101.70	4101.70	4101.70	4101.70	74.8239	
543.080		4032.18		4096.26	4096.26	4096.26	4096.26	-64.0746	
543.060		4159.95		4090.55	4090.55	4090.55	4090.55	69.4014	
543.040		4249.41		4084.81	4084.81	4084.81	4084.81	164.600	
543.020		4209.97		4079.00	4079.00	4079.00	4079.00	130.973	
543.000		4171.38		4073.05	4073.05	4073.05	4073.05	98.3322	
542.980		4038.76		4067.01	4067.01	4067.01	4067.01	-28.2467	
542.960		3931.00		4061.64	4061.64	4061.64	4061.64	-130.635	
542.940		4057.34		4056.83	4056.83	4056.83	4056.83	0.503370	
542.920		4130.80		4052.27	4052.27	4052.27	4052.27	78.5292	
542.900		4123.65		4048.02	4048.02	4048.02	4048.02	75.6247	
542.880		4036.47		4043.99	4043.99	4043.99	4043.99	-7.51619	
542.860		4046.19		4040.61	4040.61	4040.61	4040.61	5.57712	
542.840		4103.36		4037.54	4037.54	4037.54	4037.54	65.8121	
542.820		4112.22		4034.71	4034.71	4034.71	4034.71	77.5092	
542.800		4176.53		4032.10	4032.10	4032.10	4032.10	144.428	
542.780		4062.20		4029.51	4029.51	4029.51	4029.51	32.6887	
542.760		4014.75		4027.13	4027.13	4027.13	4027.13	-12.3856	
542.740		3888.98		4024.74	4024.74	4024.74	4024.74	-135.752	
542.720		3917.28		4022.80	4022.80	4022.80	4022.80	-105.514	
542.700		4131.65		4020.93	4020.93	4020.93	4020.93	110.718	
542.680		4203.11		4018.68	4018.68	4018.68	4018.68	184.432	
542.660		4041.90		4016.52	4016.52	4016.52	4016.52	25.3874	
542.640		3852.11		4014.14	4014.14	4014.14	4014.14	-162.023	
542.620		3912.71		4011.65	4011.65	4011.65	4011.65	-98.9467	
542.600		4020.18		4009.08	4009.08	4009.08	4009.08	11.0992	
542.580		3881.27		4006.13	4006.13	4006.13	4006.13	-124.865	
542.560		4083.92		4003.28	4003.28	4003.28	4003.28	80.6395	
542.540		4106.50		4000.66	4000.66	4000.66	4000.66	105.835	
542.520		4151.66		3998.79	3998.79	3998.79	3998.79	152.873	
542.500		3953.30		3997.10	3997.10	3997.10	3997.10	-43.8070	
542.480		3953.30		3994.94	3994.94	3994.94	3994.94	-41.6471	
542.460		4004.17		3992.13	3992.13	3992.13	3992.13	12.0436	
542.440		3962.44		3988.89	3988.89	3988.89	3988.89	-26.4436	
542.420		4139.94		3985.93	3985.93	3985.93	3985.93	154.013	
542.400		4091.06		3983.27	3983.27	3983.27	3983.27	107.795	
542.380		4000.17		3980.67	3980.67	3980.67	3980.67	19.4989	
542.360		4101.07		3978.00	3978.00	3978.00	3978.00	123.069	
542.340		3997.03		3974.94	3974.94	3974.94	3974.94	22.0863	
542.320		3961.58		3971.96	3971.96	3971.96	3971.96	-10.3796	
542.300		3864.69		3968.50	3968.50	3968.50	3968.50	-103.814	
542.280		3943.86		3964.97	3964.97	3964.97	3964.97	-21.1081	
542.260		4119.65		3961.81	3961.81	3961.81	3961.81	157.835	
542.240		4045.05		3959.19	3959.19	3959.19	3959.19	85.8613	
542.220		3989.02		3956.44	3956.44	3956.44	3956.44	32.5824	
542.200		3959.87		3953.48	3953.48	3953.48	3953.48	6.38548	
542.180		4033.04		3950.36	3950.36	3950.36	3950.36	82.6821	
542.160		3955.30		3947.33	3947.33	3947.33	3947.33	7.96195	
542.140		3812.38		3944.39	3944.39	3944.39	3944.39	-132.011	
542.120		3975.02		3941.26	3941.26	3941.26	3941.26	33.7548	
542.100		3921.57		3938.12	3938.12	3938.12	3938.12	-16.5465	
542.080		3971.87		3935.52	3935.52	3935.52	3935.52	36.3580	
542.060		4029.90		3933.16	3933.16	3933.16	3933.16	96.7334	
542.040		3906.13		3930.80	3930.80	3930.80	3930.80	-24.6653	
542.020		3905.85		3927.66	3927.66	3927.66	3927.66	-21.8148	
542.000		3931.00		3924.17	3924.17	3924.17	3924.17	6.83474	
541.980		3961.87		3921.38	3921.38	3921.38	3921.38	40.4871	
541.960		3994.17		3918.88	3918.88	3918.88	3918.88	75.2848	
541.940		3862.40		3916.64	3916.64	3916.64	3916.64	-54.2410	
541.920		4047.33		3914.54	3914.54	3914.54	3914.54	132.791	
541.900		4090.49		3912.86	3912.86	3912.86	3912.86	177.638	
541.880		3941.29		3911.70	3911.70	3911.70	3911.70	29.5938	
541.860		3854.68		3910.18	3910.18	3910.18	3910.18	-55.4922	
541.840		3860.97		3908.44	3908.44	3908.44	3908.44	-47.4695	
541.820		3915.85		3906.37	3906.37	3906.37	3906.37	9.47730	
541.800		4069.63		3905.02	3905.02	3905.02	3905.02	164.613	
541.780		4000.74		3903.78	3903.78	3903.78	3903.78	96.9637	
541.760		3816.67		3902.38	3902.38	3902.38	3902.38	-85.7073	
541.740		3896.99		3900.62	3900.62	3900.62	3900.62	-3.63048	
541.720		3854.97		3898.99	3898.99	3898.99	3898.99	-44.0181	
541.700		3869.55		3897.65	3897.65	3897.65	3897.65	-28.1063	
541.680		3855.54		3896.77	3896.77	3896.77	3896.77	-41.2278	
541.660		3747.50		3896.06	3896.06	3896.06	3896.06	-148.565	
541.640		3907.56		3895.89	3895.89	3895.89	3895.89	11.6732	
541.620		4015.89		3895.89	3895.89	3895.89	3895.89	120.003	
541.600		3998.46		3895.88	3895.88	3895.88	3895.88	102.581	
541.580		3699.77		3895.81	3895.81	3895.81	3895.81	-196.049	
541.560		3963.30		3895.73	3895.73	3895.73	3895.73	67.5659	
541.540		3937.86		3895.62	3895.62	3895.62	3895.62	42.2419	
541.520		3997.60		3895.59	3895.59	3895.59	3895.59	102.011	
541.500		3856.69		3895.56	3895.56	3895.56	3895.56	-38.8736	
541.480		3835.82		3895.55	3895.55	3895.55	3895.55	-59.7267	
541.460		3822.10		3895.54	3895.54	3895.54	3895.54	-73.4386	
541.440		3788.09		3895.49	3895.49	3895.49	3895.49	-107.406	
541.420		3859.83		3895.47	3895.47	3895.47	3895.47	-35.6424	
541.400		4029.90		3895.39	3895.39	3895.39	3895.39	134.513	
541.380		3974.45		3895.21	3895.21	3895.21	3895.21	79.2387	
541.360		3965.30		3895.00	3895.00	3895.00	3895.00	70.3046	
541.340		3906.71		3894.82	3894.82	3894.82	3894.82	11.8856	
541.320		3995.03		3894.75	3894.75	3894.75	3894.75	100.279	
541.300		3866.69		3894.56	3894.56	3894.56	3894.56	-27.8739	
541.280		3996.74		3894.34	3894.34	3894.34	3894.34	102.402	
541.260		3776.08		3894.11	3894.11	3894.11	3894.11	-118.025	
541.240		3867.26		3893.88	3893.88	3893.88	3893.88	-26.6238	
541.220		3927.29		3893.64	3893.64	3893.64	3893.64	33.6465	
541.200		3820.39		3893.31	3893.31	3893.31	3893.31	-72.9270	
541.180		3981.88		3892.92	3892.92	3892.92	3892.92	88.9612	
541.160		3919.57		3892.41	3892.41	3892.41	3892.41	27.1588	
541.140		3971.59		3891.87	3891.87	3891.87	3891.87	79.7222	
541.120		3939.86		3891.33	3891.33	3891.33	3891.33	48.5332	
541.100		3793.80		3890.86	3890.86	3890.86	3890.86	-97.0558	
541.080		3913.28		3890.49	3890.49	3890.49	3890.49	22.7859	
541.060		4036.19		3890.15	3890.15	3890.15	3890.15	146.040	
541.040		3949.58		3889.85	3889.85	3889.85	3889.85	59.7286	
541.020		3970.16		3889.50	3889.50	3889.50	3889.50	80.6575	
541.000		3898.70		3889.21	3889.21	3889.21	3889.21	9.49428	
540.980		3985.31		3888.82	3888.82	3888.82	3888.82	96.4858	
540.960		3947.29		3888.43	3888.43	3888.43	3888.43	58.8672	
540.940		3998.17		3888.07	3888.07	3888.07	3888.07	110.105	
540.920		3914.42		3887.66	3887.66	3887.66	3887.66	26.7631	
540.900		4008.46		3887.25	3887.25	3887.25	3887.25	121.207	
540.880		3829.25		3886.78	3886.78	3886.78	3886.78	-57.5370	
540.860		3752.36		3886.37	3886.37	3886.37	3886.37	-134.015	
540.840		3864.97		3886.10	3886.10	3886.10	3886.10	-21.1282	
540.820		3882.70		3885.85	3885.85	3885.85	3885.85	-3.15831	
540.800		3966.16		3885.58	3885.58	3885.58	3885.58	80.5765	
540.780		3881.27		3885.35	3885.35	3885.35	3885.35	-4.08471	
540.760		3946.72		3885.15	3885.15	3885.15	3885.15	61.5755	
540.740		3879.84		3884.92	3884.92	3884.92	3884.92	-5.08316	
540.720		3848.40		3884.70	3884.70	3884.70	3884.70	-36.3059	
540.700		3899.56		3884.54	3884.54	3884.54	3884.54	15.0215	
540.680		3974.73		3884.41	3884.41	3884.41	3884.41	90.3228	
540.660		4033.04		3884.38	3884.38	3884.38	3884.38	148.658	
540.640		3843.54		3884.37	3884.37	3884.37	3884.37	-40.8278	
540.620		3661.18		3884.24	3884.24	3884.24	3884.24	-223.065	
540.600		3744.93		3884.06	3884.06	3884.06	3884.06	-139.133	
540.580		3954.72		3883.79	3883.79	3883.79	3883.79	70.9360	
540.560		3946.72		3883.51	3883.51	3883.51	3883.51	63.2164	
540.540		3896.99		3883.21	3883.21	3883.21	3883.21	13.7788	
540.520		4003.89		3882.92	3882.92	3882.92	3882.92	120.964	
540.500		3880.41		3882.64	3882.64	3882.64	3882.64	-2.22638	
540.480		3874.98		3882.37	3882.37	3882.37	3882.37	-7.39630	
540.460		3874.41		3882.10	3882.10	3882.10	3882.10	-7.68852	
540.440		3796.38		3881.77	3881.77	3881.77	3881.77	-85.3953	
540.420		3900.99		3881.41	3881.41	3881.41	3881.41	19.5823	
540.400		3971.02		3881.02	3881.02	3881.02	3881.02	89.9936	
540.380		3980.16		3880.63	3880.63	3880.63	3880.63	99.5323	
540.360		3954.72		3880.17	3880.17	3880.17	3880.17	74.5581	
540.340		3884.41		3879.63	3879.63	3879.63	3879.63	4.78557	
540.320		3900.70		3879.03	3879.03	3879.03	3879.03	21.6684	
540.300		3921.28		3878.45	3878.45	3878.45	3878.45	42.8323	
540.280		3874.69		3877.86	3877.86	3877.86	3877.86	-3.16755	
540.260		3862.97		3877.27	3877.27	3877.27	3877.27	-14.2921	
540.240		3912.42		3876.67	3876.67	3876.67	3876.67	35.7506	
540.220		3947.29		3876.01	3876.01	3876.01	3876.01	71.2822	
540.200		3984.17		3875.37	3875.37	3875.37	3875.37	108.797	
540.180		4006.17		3874.70	3874.70	3874.70	3874.70	131.477	
540.160		4038.47		3873.96	3873.96	3873.96	3873.96	164.508	
540.140		4008.75		3873.18	3873.18	3873.18	3873.18	135.564	
540.120		3836.39		3872.38	3872.38	3872.38	3872.38	-35.9867	
540.100		3848.97		3871.59	3871.59	3871.59	3871.59	-22.6235	
540.080		3917.00		3870.82	3870.82	3870.82	3870.82	46.1771	
540.060		3940.43		3870.04	3870.04	3870.04	3870.04	70.3950	
540.040		3886.13		3869.32	3869.32	3869.32	3869.32	16.8102	
540.020		3981.88		3868.61	3868.61	3868.61	3868.61	113.269	
540.000		4025.90		3867.83	3867.83	3867.83	3867.83	158.066	
539.980		3807.52		3866.91	3866.91	3866.91	3866.91	-59.3861	
539.960		3922.14		3865.89	3865.89	3865.89	3865.89	56.2515	
539.940		3927.57		3864.86	3864.86	3864.86	3864.86	62.7114	
539.920		4002.74		3863.87	3863.87	3863.87	3863.87	138.869	
539.900		4001.60		3862.91	3862.91	3862.91	3862.91	138.686	
539.880		3909.28		3862.00	3862.00	3862.00	3862.00	47.2763	
539.860		3894.99		3861.08	3861.08	3861.08	3861.08	33.9048	
539.840		3875.55		3860.10	3860.10	3860.10	3860.10	15.4508	
539.820		3730.06		3859.07	3859.07	3859.07	3859.07	-129.004	
539.800		3854.40		3858.02	3858.02	3858.02	3858.02	-3.62187	
539.780		4037.04		3856.93	3856.93	3856.93	3856.93	180.109	
539.760		4193.68		3855.76	3855.76	3855.76	3855.76	337.914	
539.740		4134.80		3854.59	3854.59	3854.59	3854.59	280.202	
539.720		3938.72		3853.50	3853.51	3853.50	3853.51	85.2107	
539.700		3841.25		3852.35	3852.36	3852.35	3852.36	-11.1053	
539.680		3914.42		3851.21	3851.22	3851.21	3851.22	63.2070	
539.660		3888.70		3850.01	3850.01	3850.01	3850.01	38.6854	
539.640		3998.17		3848.77	3848.77	3848.77	3848.77	149.397	
539.620		3965.30		3847.47	3847.48	3847.47	3847.48	117.821	
539.600		3944.15		3846.18	3846.19	3846.18	3846.19	97.9621	
539.580		3923.28		3844.87	3844.88	3844.87	3844.88	78.4064	
539.560		4008.46		3843.46	3843.47	3843.46	3843.47	164.987	
539.540		4067.91		3841.98	3841.99	3841.98	3841.99	225.927	
539.520		3943.86		3840.45	3840.47	3840.45	3840.47	103.398	
539.500		3785.23		3838.98	3838.99	3838.98	3838.99	-53.7628	
539.480		3937.86		3837.58	3837.60	3837.58	3837.60	100.262	
539.460		3859.83		3836.23	3836.25	3836.23	3836.25	23.5785	
539.440		4053.05		3834.81	3834.84	3834.81	3834.84	218.215	
539.420		4059.62		3833.34	3833.37	3833.34	3833.37	226.258	
539.400		4105.64		3831.86	3831.89	3831.86	3831.89	273.757	
539.380		3868.98		3830.31	3830.34	3830.31	3830.34	38.6330	
539.360		3902.42		3828.71	3828.74	3828.71	3828.74	73.6741	
539.340		4076.20		3827.11	3827.15	3827.11	3827.15	249.054	
539.320		3902.70		3825.47	3825.52	3825.47	3825.52	77.1889	
539.300		3898.42		3823.74	3823.79	3823.74	3823.79	74.6244	
539.280		3880.41		3821.99	3822.05	3821.99	3822.05	58.3600	
539.260		3946.44		3820.27	3820.34	3820.27	3820.34	126.091	
539.240		3984.45		3818.52	3818.61	3818.52	3818.61	165.845	
539.220		4074.20		3816.73	3816.82	3816.73	3816.82	257.381	
539.200		3939.00		3814.91	3815.02	3814.91	3815.02	123.985	
539.180		3901.85		3813.06	3813.17	3813.06	3813.17	88.6724	
539.160		4006.75		3811.22	3811.35	3811.22	3811.35	195.394	
539.140		4101.64		3809.39	3809.54	3809.39	3809.54	292.097	
539.120		3915.28		3807.56	3807.74	3807.56	3807.74	107.545	
539.100		3998.46		3805.71	3805.90	3805.71	3805.90	192.552	
539.080		4108.50		3803.85	3804.07	3803.85	3804.07	304.433	
539.060		4015.32		3802.07	3802.32	3802.07	3802.32	213.005	
539.040		3927.86		3800.23	3800.51	3800.23	3800.51	127.348	
539.020		3989.02		3798.28	3798.59	3798.28	3798.59	190.432	
539.000		3862.40		3796.31	3796.65	3796.31	3796.65	65.7502	
538.980		3930.43		3794.32	3794.71	3794.32	3794.71	135.722	
538.960		3930.72		3792.29	3792.72	3792.29	3792.72	137.996	
538.940		3952.44		3790.27	3790.76	3790.27	3790.76	161.681	
538.920		3979.88		3788.24	3788.78	3788.24	3788.78	191.101	
538.900		4064.20		3786.14	3786.74	3786.14	3786.74	277.456	
538.880		3884.41		3784.06	3784.72	3784.06	3784.72	99.6864	
538.860		3876.41		3781.97	3782.71	3781.97	3782.71	93.6988	
538.840		3824.10		3779.80	3780.63	3779.80	3780.63	43.4759	
538.820		4000.17		3777.64	3778.55	3777.64	3778.55	221.619	
538.800		4137.94		3775.45	3776.46	3775.45	3776.46	361.477	
538.780		3900.99		3773.25	3774.37	3773.25	3774.37	126.621	
538.760		3918.71		3771.03	3772.27	3771.03	3772.27	146.438	
538.740		4053.91		3768.82	3770.18	3768.82	3770.18	283.723	
538.720		3968.73		3766.49	3767.99	3766.49	3767.99	200.736	
538.700		3949.87		3764.12	3765.79	3764.12	3765.79	184.081	
538.680		4006.17		3761.79	3763.62	3761.79	3763.62	242.550	
538.660		3920.43		3759.43	3761.44	3759.43	3761.44	158.984	
538.640		4065.34		3757.03	3759.24	3757.03	3759.24	306.102	
538.620		4054.19		3754.57	3756.98	3754.57	3756.98	297.208	
538.600		3938.43		3752.03	3754.67	3752.03	3754.67	183.758	
538.580		4115.07		3749.45	3752.35	3749.45	3752.35	362.723	
538.560		4004.74		3746.77	3749.94	3746.77	3749.94	254.808	
538.540		3900.70		3744.02	3747.47	3744.02	3747.47	153.233	
538.520		3940.43		3741.28	3745.05	3741.28	3745.05	195.384	
538.500		4097.64		3738.50	3742.60	3738.50	3742.60	355.037	
538.480		3952.72		3735.66	3740.13	3735.66	3740.13	212.598	
538.460		3788.09		3732.79	3737.63	3732.79	3737.63	50.4532	
538.440		3985.59		3729.86	3735.12	3729.86	3735.12	250.476	
538.420		4011.32		3726.89	3732.59	3726.89	3732.59	278.728	
538.400		4179.39		3723.91	3730.09	3723.91	3730.09	449.296	
538.380		4011.32		3720.95	3727.64	3720.95	3727.64	283.682	
538.360		3895.27		3718.02	3725.25	3718.02	3725.25	170.026	
538.340		4047.62		3715.08	3722.87	3715.08	3722.87	324.748	
538.320		4117.36		3712.05	3720.46	3712.05	3720.46	396.903	
538.300		4016.46		3709.00	3718.05	3709.00	3718.05	298.409	
538.280		3963.59		3705.90	3715.64	3705.90	3715.64	247.946	
538.260		3989.31		3702.71	3713.18	3702.71	3713.18	276.132	
538.240		4095.35		3699.48	3710.72	3699.48	3710.72	384.636	
538.220		4028.18		3696.23	3708.29	3696.23	3708.29	319.894	
538.200		3989.02		3692.95	3705.86	3692.95	3705.86	283.162	
538.180		3945.58		3689.61	3703.43	3689.61	3703.43	242.143	
538.160		3814.95		3686.25	3701.03	3686.25	3701.03	113.925	
538.140		3922.14		3682.84	3698.62	3682.84	3698.62	223.524	
538.120		4036.76		3679.44	3696.27	3679.44	3696.27	340.486	
538.100		4056.77		3676.00	3693.95	3676.00	3693.95	362.819	
538.080		4122.22		3672.52	3691.62	3672.52	3691.62	430.598	
538.060		4062.20		3669.08	3689.40	3669.08	3689.40	372.799	
538.040		4050.76		3665.68	3687.27	3665.68	3687.27	363.494	
538.020		3976.16		3662.31	3685.23	3662.31	3685.23	290.933	
538.000		4050.76		3658.96	3683.26	3658.96	3683.26	367.502	
537.980		3991.31		3655.65	3681.39	3655.65	3681.39	309.922	
537.960		3834.39		3652.43	3679.67	3652.43	3679.67	154.722	
537.940		3978.73		3649.25	3678.05	3649.25	3678.05	300.685	
537.920		4080.49		3646.03	3676.45	3646.03	3676.45	404.040	
537.900		4059.05		3642.77	3674.87	3642.77	3674.87	384.186	
537.880		4017.32		3639.45	3673.29	3639.45	3673.29	344.033	
537.860		3954.44		3636.13	3671.77	3636.13	3671.77	282.669	
537.840		3853.83		3632.84	3670.34	3632.84	3670.34	183.492	
537.820		3940.43		3629.54	3668.95	3629.54	3668.95	271.479	
537.800		3858.11		3626.30	3667.70	3626.30	3667.70	190.415	
537.780		3853.83		3623.11	3666.55	3623.11	3666.55	187.278	
537.760		3819.81		3620.03	3665.56	3620.03	3665.56	154.252	
537.740		3785.51		3617.00	3664.69	3617.00	3664.69	120.823	
537.720		3854.11		3614.07	3663.98	3614.07	3663.98	190.135	
537.700		4020.18		3611.21	3663.39	3611.21	3663.39	356.792	
537.680		3984.74		3608.31	3662.81	3608.31	3662.81	321.922	
537.660		3882.12		3605.47	3662.36	3605.47	3662.36	219.766	
537.640		3852.68		3602.73	3662.05	3602.73	3662.05	190.634	
537.620		3906.71		3600.13	3661.94	3600.13	3661.94	244.764	
537.600		3999.60		3597.67	3662.02	3597.67	3662.02	337.584	
537.580		3885.27		3595.25	3662.18	3595.25	3662.18	223.090	
537.560		3876.98		3592.80	3662.36	3592.80	3662.36	214.614	
537.540		3721.20		3590.41	3662.66	3590.41	3662.66	58.5473	
537.520		3759.50		3588.10	3663.07	3588.10	3663.07	96.4321	
537.500		3734.35		3585.82	3663.55	3585.82	3663.55	70.7985	
537.480		3760.65		3583.55	3664.08	3583.55	3664.08	96.5632	
537.460		3870.12		3581.29	3664.67	3581.29	3664.67	205.450	
537.440		3759.50		3579.06	3665.32	3579.06	3665.32	94.1866	
537.420		3781.80		3576.99	3666.16	3576.99	3666.16	115.638	
537.400		3624.02		3575.03	3667.14	3575.03	3667.14	-43.1232	
537.380		3628.02		3573.14	3668.23	3573.14	3668.23	-40.2041	
537.360		3800.38		3571.31	3669.40	3571.31	3669.40	130.978	
537.340		3862.69		3569.51	3670.63	3569.51	3670.63	192.061	
537.320		3739.78		3567.77	3671.93	3567.77	3671.93	67.8474	
537.300		3599.73		3566.07	3673.31	3566.07	3673.31	-73.5865	
537.280		3747.21		3564.43	3674.76	3564.43	3674.76	72.4530	
537.260		3743.50		3562.79	3676.23	3562.79	3676.23	67.2666	
537.240		3696.05		3561.12	3677.68	3561.12	3677.68	18.3666	
537.220		3740.35		3559.43	3679.14	3559.43	3679.14	61.2150	
537.200		3564.28		3557.80	3680.66	3557.80	3680.66	-116.379	
537.180		3665.47		3556.25	3682.27	3556.25	3682.27	-16.8046	
537.160		3666.32		3554.78	3683.97	3554.78	3683.97	-17.6459	
537.140		3653.75		3553.42	3685.79	3553.42	3685.79	-32.0430	
537.120		3795.52		3552.02	3687.58	3552.02	3687.58	107.939	
537.100		3818.10		3550.63	3689.37	3550.63	3689.38	128.724	
537.080		3724.63		3549.33	3691.27	3549.33	3691.28	33.3577	
537.060		3712.91		3548.16	3693.30	3548.16	3693.30	19.6156	
537.040		3674.04		3547.05	3695.39	3547.05	3695.39	-21.3531	
537.020		3810.67		3545.96	3697.51	3545.96	3697.51	113.158	
537.000		3727.78		3544.92	3699.67	3544.92	3699.67	28.1059	
536.980		3583.72		3543.95	3701.90	3543.94	3701.90	-118.178	
536.960		3646.03		3542.99	3704.14	3542.99	3704.14	-58.1140	
536.940		3523.41		3542.05	3706.41	3542.05	3706.41	-182.999	
536.920		3462.24		3541.07	3708.63	3541.06	3708.63	-246.388	
536.900		3692.91		3540.11	3710.88	3540.11	3710.88	-17.9746	
536.880		3592.29		3539.20	3713.17	3539.20	3713.17	-120.880	
536.860		3519.41		3538.32	3715.49	3538.31	3715.50	-196.092	
536.840		3532.56		3537.55	3717.93	3537.55	3717.94	-185.385	
536.820		3536.56		3536.88	3720.47	3536.87	3720.48	-183.918	
536.800		3532.27		3536.26	3723.06	3536.25	3723.07	-190.797	
536.780		3610.30		3535.71	3725.73	3535.70	3725.74	-115.442	
536.760		3560.57		3535.31	3728.54	3535.29	3728.56	-167.989	
536.740		3623.45		3535.01	3731.47	3535.00	3731.49	-108.039	
536.720		3677.19		3534.75	3734.45	3534.74	3734.47	-57.2833	
536.700		3653.18		3534.51	3737.45	3534.49	3737.47	-84.2952	
536.680		3572.29		3534.33	3740.52	3534.30	3740.54	-168.256	
536.660		3539.42		3534.14	3743.59	3534.11	3743.62	-204.202	
536.640		3557.71		3533.91	3746.64	3533.88	3746.67	-188.964	
536.620		3487.97		3533.73	3749.74	3533.68	3749.78	-261.818	
536.600		3574.86		3533.53	3752.85	3533.48	3752.90	-178.041	
536.580		3572.29		3533.35	3756.00	3533.29	3756.06	-183.771	
536.560		3498.54		3533.24	3759.23	3533.17	3759.30	-260.762	
536.540		3329.62		3533.12	3762.48	3533.04	3762.56	-432.946	
536.520		3517.41		3533.00	3765.76	3532.91	3765.85	-248.445	
536.500		3622.31		3532.93	3769.10	3532.82	3769.21	-146.904	
536.480		3545.13		3532.84	3772.45	3532.71	3772.58	-227.451	
536.460		3494.25		3532.78	3775.87	3532.63	3776.03	-281.770	
536.440		3541.99		3532.80	3779.41	3532.62	3779.58	-237.594	
536.420		3546.56		3532.81	3782.96	3532.61	3783.17	-236.607	
536.400		3587.15		3532.83	3786.56	3532.59	3786.80	-199.649	
536.380		3626.59		3532.85	3790.20	3532.57	3790.48	-163.882	
536.360		3460.53		3532.87	3793.89	3532.55	3794.20	-333.677	
536.340		3361.92		3532.90	3797.62	3532.53	3797.99	-436.071	
536.320		3569.43		3532.93	3801.41	3532.51	3801.83	-232.401	
536.300		3523.70		3532.97	3805.25	3532.49	3805.73	-282.038	
536.280		3513.12		3533.02	3809.15	3532.47	3809.70	-296.584	
536.260		3601.73		3533.07	3813.11	3532.44	3813.74	-212.014	
536.240		3541.13		3533.13	3817.13	3532.41	3817.85	-276.719	
536.220		3482.54		3533.20	3821.22	3532.38	3822.04	-339.500	
536.200		3647.46		3533.28	3825.37	3532.35	3826.30	-178.844	
536.180		3728.63		3533.37	3829.60	3532.31	3830.66	-102.022	
536.160		3639.74		3533.47	3833.91	3532.27	3835.10	-195.359	
536.140		3603.73		3533.59	3838.29	3532.24	3839.64	-235.916	
536.120		3542.85		3533.72	3842.76	3532.20	3844.29	-301.442	
536.100		3630.31		3533.87	3847.33	3532.16	3849.04	-218.733	
536.080		3565.43		3534.05	3851.98	3532.12	3853.91	-288.482	
536.060		3635.45		3534.24	3856.72	3532.07	3858.89	-223.435	
536.040		3653.46		3534.45	3861.57	3532.03	3863.99	-210.534	
536.020		3722.35		3534.69	3866.51	3531.98	3869.23	-146.885	
536.000		3791.52		3534.96	3871.57	3531.92	3874.60	-83.0857	
535.980		3730.35		3535.25	3876.73	3531.87	3880.12	-149.768	
535.960		3735.49		3535.58	3882.02	3531.81	3885.78	-150.288	
535.940		3697.76		3535.94	3887.42	3531.76	3891.60	-193.840	
535.920		3594.01		3536.33	3892.96	3531.70	3897.59	-303.585	
535.900		3577.72		3536.77	3898.62	3531.64	3903.76	-326.040	
535.880		3636.03		3537.25	3904.42	3531.58	3910.10	-274.072	
535.860		3609.73		3537.77	3910.37	3531.51	3916.63	-306.899	
535.840		3755.50		3538.34	3916.46	3531.44	3923.36	-167.854	
535.820		3729.78		3538.96	3922.71	3531.38	3930.29	-200.513	
535.800		3673.18		3539.63	3929.12	3531.30	3937.44	-264.254	
535.780		3737.21		3540.35	3935.69	3531.23	3944.81	-207.599	
535.760		3789.80		3541.13	3942.43	3531.15	3952.41	-162.608	
535.740		3688.62		3541.96	3949.36	3531.06	3960.25	-271.635	
535.720		3613.73		3542.86	3956.46	3530.97	3968.35	-354.618	
535.700		3679.19		3543.82	3963.77	3530.88	3976.71	-297.521	
535.680		3807.81		3544.85	3971.28	3530.79	3985.34	-177.534	
535.660		3940.72		3545.95	3979.01	3530.69	3994.27	-53.5462	
535.640		3756.36		3547.12	3986.95	3530.59	4003.48	-247.124	
535.620		3674.90		3548.37	3995.13	3530.48	4013.01	-338.113	
535.600		3809.24		3549.69	4003.55	3530.38	4022.86	-213.625	
535.580		3865.83		3551.09	4012.23	3530.27	4033.05	-167.216	
535.560		3913.28		3552.57	4021.17	3530.15	4043.58	-130.301	
535.540		4005.03		3554.13	4030.38	3530.04	4054.47	-49.4441	
535.520		4127.65		3555.77	4039.88	3529.91	4065.74	61.9088	
535.500		4132.51		3557.50	4049.69	3529.79	4077.40	55.1127	
535.480		4077.35		3559.31	4059.81	3529.66	4089.46	-12.1108	
535.460		3827.25		3561.20	4070.25	3529.52	4101.93	-274.688	
535.440		3832.68		3563.17	4081.05	3529.37	4114.84	-282.168	
535.420		4014.75		3565.23	4092.20	3529.23	4128.21	-113.457	
535.400		3828.67		3567.37	4103.74	3529.07	4142.04	-313.364	
535.380		3791.52		3569.59	4115.68	3528.92	4156.36	-364.844	
535.360		3980.45		3571.90	4128.05	3528.76	4171.19	-190.742	
535.340		3977.88		3574.29	4140.85	3528.59	4186.55	-208.670	
535.320		3993.03		3576.76	4154.11	3528.43	4202.45	-209.425	
535.300		4095.07		3579.31	4167.87	3528.25	4218.93	-123.859	
535.280		4169.38		3581.94	4182.13	3528.07	4235.99	-66.6108	
535.260		4177.10		3584.63	4196.94	3527.89	4253.68	-76.5790	
535.240		4083.92		3587.41	4212.31	3527.71	4272.01	-188.092	
535.220		4179.67		3590.25	4228.29	3527.53	4291.02	-111.348	
535.200		4101.64		3593.17	4244.90	3527.34	4310.73	-209.087	
535.180		4068.48		3596.14	4262.17	3527.15	4331.16	-262.678	
535.160		4137.37		3599.17	4280.13	3526.95	4352.36	-214.987	
535.140		4044.76		3602.26	4298.83	3526.75	4374.34	-329.583	
535.120		4259.13		3605.39	4318.30	3526.54	4397.16	-138.029	
535.100		4128.22		3608.58	4338.59	3526.32	4420.84	-292.622	
535.080		4128.51		3611.80	4359.73	3526.09	4445.44	-316.930	
535.060		4346.88		3615.07	4381.78	3525.87	4470.98	-124.102	
535.040		4314.58		3618.37	4404.79	3525.63	4497.52	-182.940	
535.020		4161.38		3621.70	4428.80	3525.39	4525.11	-363.729	
535.000		4081.06		3625.06	4453.87	3525.14	4553.79	-472.725	
534.980		4364.60		3628.44	4480.05	3524.88	4583.61	-219.010	
534.960		4409.19		3631.84	4507.42	3524.62	4614.64	-205.452	
534.940		4409.76		3635.26	4536.03	3524.35	4646.94	-237.176	
534.920		4443.21		3638.69	4565.94	3524.07	4680.56	-237.357	
534.900		4371.46		3642.13	4597.23	3523.78	4715.58	-344.114	
534.880		4356.89		3645.57	4629.96	3523.48	4752.05	-395.168	
534.860		4354.31		3649.01	4664.22	3523.16	4790.06	-435.749	
534.840		4450.92		3652.44	4700.08	3522.84	4829.68	-378.760	
534.820		4587.26		3655.87	4737.62	3522.50	4871.00	-283.733	
534.800		4592.98		3659.29	4776.94	3522.15	4914.09	-321.108	
534.780		4752.47		3662.71	4818.13	3521.78	4959.05	-206.577	
534.760		4703.02		3666.11	4861.27	3521.41	5005.97	-302.947	
534.740		4681.30		3669.50	4906.46	3521.02	5054.95	-373.647	
534.720		4846.22		3672.88	4953.81	3520.61	5106.08	-259.853	
534.700		4745.90		3676.24	5003.42	3520.19	5159.47	-413.570	
534.680		4921.68		3679.59	5055.40	3519.75	5215.23	-293.546	
534.660		5031.16		3682.92	5109.85	3519.30	5273.47	-242.313	
534.640		5146.63		3686.23	5166.90	3518.83	5334.30	-187.669	
534.620		5195.22		3689.53	5226.65	3518.34	5397.84	-202.620	
534.600		5293.55		3692.80	5289.23	3517.82	5464.21	-170.669	
534.580		5107.47		3696.06	5354.76	3517.28	5533.54	-426.070	
534.560		5184.36		3699.30	5423.37	3516.72	5605.95	-421.591	
534.540		5344.14		3702.53	5495.18	3516.14	5681.57	-337.436	
534.520		5418.74		3705.74	5570.32	3515.52	5760.54	-341.799	
534.500		5505.63		3708.94	5648.92	3514.88	5842.98	-337.347	
534.480		5529.35		3712.12	5731.11	3514.21	5929.03	-399.672	
534.460		5569.37		3715.30	5817.03	3513.51	6018.82	-449.450	
534.440		5826.90		3718.47	5906.81	3512.78	6112.50	-285.594	
534.420		6004.69		3721.63	6000.57	3512.02	6210.19	-205.500	
534.400		6027.84		3724.79	6098.46	3511.22	6312.03	-284.190	
534.380		6120.16		3727.95	6200.59	3510.38	6418.16	-297.996	
534.360		6358.26		3731.12	6307.11	3509.52	6528.70	-170.446	
534.340		6384.27		3734.29	6418.12	3508.61	6643.79	-259.526	
534.320		6456.58		3737.47	6533.76	3507.67	6763.56	-306.973	
534.300		6840.45		3740.66	6654.13	3506.69	6888.11	-47.6559	
534.280		7035.39		3743.87	6779.35	3505.66	7017.56	17.8235	
534.260		7118.85		3747.10	6909.53	3504.59	7152.04	-33.1897	
534.240		7182.30		3750.35	7044.76	3503.48	7291.63	-109.333	
534.220		7354.94		3753.64	7185.14	3502.33	7436.45	-81.5038	
534.200		7423.83		3756.95	7330.73	3501.12	7586.55	-162.728	
534.180		7751.39		3760.28	7481.61	3499.86	7742.04	9.35027	
534.160		7766.54		3763.66	7637.84	3498.55	7902.96	-136.423	
534.140		8046.65		3767.07	7799.48	3497.18	8069.38	-22.7287	
534.120		8211.86		3770.53	7966.54	3495.75	8241.33	-29.4726	
534.100		8397.93		3774.03	8139.07	3494.26	8418.84	-20.9135	
534.080		8491.68		3777.58	8317.05	3492.70	8601.94	-110.253	
534.060		8741.21		3781.19	8500.49	3491.08	8790.60	-49.3939	
534.040		8612.59		3784.87	8689.37	3489.40	8984.83	-372.243	
534.020		8819.53		3788.61	8883.63	3487.66	9184.58	-365.054	
534.000		9314.01		3792.43	9083.23	3485.85	9389.81	-75.7953	
533.980		9729.03		3796.33	9288.07	3483.97	9600.43	128.602	
533.960		9958.55		3800.33	9498.07	3482.03	9816.36	142.190	
533.940		10248.4		3804.42	9713.10	3480.03	10037.5	210.896	
533.920		10550.2		3808.60	9933.01	3477.94	10263.7	286.553	
533.900		10868.1		3812.90	10157.6	3475.79	10494.7	373.315	
533.880		11186.8		3817.32	10386.8	3473.57	10730.5	456.212	
533.860		11532.6		3821.87	10620.3	3471.27	10970.9	561.742	
533.840		11500.3		3826.55	10857.8	3468.90	11215.5	284.824	
533.820		11781.3		3831.38	11099.2	3466.46	11464.2	317.129	
533.800		12106.0		3836.35	11344.2	3463.93	11716.6	389.392	
533.780		12160.6		3841.50	11592.3	3461.33	11972.5	188.065	
533.760		12260.3		3846.82	11843.4	3458.64	12231.6	28.7438	
533.740		12691.9		3852.32	12097.0	3455.87	12493.5	198.454	
533.720		13005.8		3858.02	12352.8	3453.01	12757.8	247.946	
533.700		13395.4		3863.93	12610.4	3450.08	13024.3	371.106	
533.680		13487.1		3870.08	12869.3	3447.06	13292.3	194.764	
533.660		13653.7		3876.48	13129.2	3443.96	13561.7	92.0592	
533.640		13879.8		3883.15	13389.5	3440.78	13831.8	48.0018	
533.620		14260.3		3890.11	13649.7	3437.53	14102.3	157.949	
533.600		14625.0		3897.38	13909.5	3434.19	14372.7	252.309	
533.580		14943.1		3904.98	14168.2	3430.78	14642.4	300.700	
533.560		14928.8		3912.94	14425.4	3427.30	14911.0	17.8044	
533.540		15606.5		3921.28	14680.4	3423.73	15178.0	428.545	
533.520		15858.1		3930.02	14932.8	3420.09	15442.8	415.288	
533.500		16149.3		3939.21	15182.0	3416.37	15704.8	444.468	
533.480		16273.4		3948.85	15427.4	3412.56	15963.7	309.687	
533.460		16629.2		3958.99	15668.4	3408.68	16218.7	410.502	
533.440		16663.8		3969.68	15904.5	3404.73	16469.4	194.369	
533.420		16949.9		3980.94	16135.1	3400.70	16715.3	234.628	
533.400		17416.7		3992.83	16359.5	3396.60	16955.8	460.927	
533.380		17574.5		4005.38	16577.3	3392.43	17190.3	384.171	
533.360		17565.0		4018.64	16787.9	3388.18	17418.4	146.647	
533.340		17977.8		4032.68	16990.7	3383.88	17639.5	338.234	
533.320		17997.5		4047.54	17185.2	3379.51	17853.3	144.234	
533.300		18423.9		4063.29	17370.9	3375.08	18059.1	364.866	
533.280		18451.7		4080.00	17547.1	3370.59	18256.6	195.114	
533.260		18950.7		4097.73	17713.6	3366.05	18445.3	505.462	
533.240		19186.0		4116.56	17869.7	3361.45	18624.8	561.158	
533.220		18960.7		4136.58	18015.0	3356.81	18794.8	165.917	
533.200		19218.5		4157.87	18149.2	3352.13	18954.9	263.599	
533.180		19307.2		4180.52	18271.8	3347.40	19104.9	202.243	
533.160		19473.2		4204.62	18382.4	3342.64	19244.4	228.792	
533.140		19604.1		4230.29	18480.8	3337.85	19373.3	230.859	
533.120		19614.7		4257.63	18566.6	3333.02	19491.2	123.458	
533.100		19564.7		4286.76	18639.6	3328.15	19598.2	-33.5249	
533.080		19779.9		4317.80	18699.5	3323.25	19694.0	85.8636	
533.060		19723.3		4350.88	18746.2	3318.33	19778.7	-55.3938	
533.040		19980.0		4386.14	18779.4	3313.39	19852.2	127.809	
533.020		19936.3		4423.74	18799.2	3308.42	19914.5	21.7625	
533.000		19891.1		4463.83	18805.3	3303.43	19965.7	-74.6380	
532.980		19731.0		4506.57	18797.9	3298.44	20006.0	-275.001	
532.960		19625.3		4552.14	18776.9	3293.43	20035.6	-410.296	
532.940		19792.5		4600.71	18742.3	3288.42	20054.6	-262.084	
532.920		19805.6		4652.47	18694.2	3283.39	20063.3	-257.672	
532.900		20141.8		4707.61	18632.9	3278.37	20062.1	79.6642	
532.880		20102.0		4766.35	18558.3	3273.34	20051.3	50.7039	
532.860		20174.6		4828.89	18470.8	3268.32	20031.4	143.223	
532.840		19980.8		4895.45	18370.7	3263.30	20002.8	-21.9590	
532.820		19886.0		4966.26	18258.0	3258.28	19966.0	-80.0526	
532.800		20040.9		5041.54	18133.3	3253.28	19921.6	119.311	
532.780		19804.2		5121.53	17996.8	3248.28	19870.1	-65.8459	
532.760		19759.3		5206.46	17848.9	3243.30	19812.1	-52.7603	
532.740		19677.0		5296.59	17690.1	3238.33	19748.3	-71.3139	
532.720		19827.1		5392.15	17520.7	3233.37	19679.4	147.639	
532.700		19649.6		5493.38	17341.2	3228.42	19606.1	43.4580	
532.680		19451.2		5600.52	17152.0	3223.48	19529.1	-77.8828	
532.660		19509.5		5713.83	16953.8	3218.55	19449.1	60.4084	
532.640		19111.6		5833.53	16747.0	3213.63	19366.9	-255.283	
532.620		19212.5		5959.87	16532.2	3208.73	19283.3	-70.7731	
532.600		19136.2		6093.06	16309.8	3203.85	19199.0	-62.8220	
532.580		18675.2		6233.33	16080.6	3198.99	19114.9	-439.718	
532.560		18732.4		6380.87	15844.9	3194.16	19031.6	-299.293	
532.540		18987.9		6535.87	15603.5	3189.34	18950.0	37.8538	
532.520		18928.4		6698.48	15356.8	3184.53	18870.8	57.6350	
532.500		18819.5		6868.86	15105.5	3179.74	18794.7	24.8573	
532.480		18736.6		7047.14	14850.2	3174.96	18722.4	14.2749	
532.460		18891.8		7233.41	14591.3	3170.19	18654.5	237.303	
532.440		18661.5		7427.74	14329.5	3165.44	18591.8	69.6241	
532.420		18612.9		7630.17	14065.4	3160.70	18534.9	78.0099	
532.400		18632.6		7840.71	13799.4	3155.97	18484.2	148.435	
532.380		18397.9		8059.33	13532.2	3151.26	18440.2	-42.3069	
532.360		18137.5		8285.93	13264.1	3146.54	18403.5	-265.994	
532.340		18181.6		8520.42	12995.9	3141.83	18374.5	-192.893	
532.320		18371.9		8762.63	12727.8	3137.12	18353.3	18.5973	
532.300		19015.9		9012.36	12460.5	3132.42	18340.4	675.479	
532.280		18612.6		9269.34	12194.3	3127.71	18335.9	276.668	
532.260		18331.0		9533.28	11929.7	3123.00	18340.0	-8.92371	
532.240		18491.7		9803.81	11667.1	3118.29	18352.6	139.061	
532.220		18520.3		10080.5	11406.9	3113.58	18373.9	146.411	
532.200		18387.6		10363.0	11149.5	3108.86	18403.6	-15.9253	
532.180		18447.7		10650.6	10895.1	3104.13	18441.6	6.08407	
532.160		18474.5		10942.9	10644.2	3099.39	18487.6	-13.1086	
532.140		19053.3		11239.1	10397.0	3094.64	18541.4	511.918	
532.120		18737.5		11538.7	10153.7	3089.87	18602.5	134.994	
532.100		18622.0		11840.8	9914.70	3085.09	18670.4	-48.3846	
532.080		18467.4		12144.7	9680.14	3080.28	18744.6	-277.184	
532.060		18666.3		12449.6	9450.23	3075.44	18824.4	-158.052	
532.040		19152.2		12754.6	9225.14	3070.59	18909.1	243.108	
532.020		18941.9		13058.7	9005.05	3065.72	18998.1	-56.2092	
532.000		18807.0		13361.1	8790.09	3060.83	19090.4	-283.447	
531.980		19077.9		13660.8	8580.35	3055.91	19185.2	-107.314	
531.960		19516.1		13956.7	8375.94	3050.98	19281.7	234.430	
531.940		19618.7		14247.8	8176.93	3046.02	19378.7	239.965	
531.920		19611.6		14533.2	7983.37	3041.05	19475.5	136.087	
531.900		19737.6		14811.6	7795.30	3036.06	19570.8	166.771	
531.880		19942.5		15082.1	7612.74	3031.05	19663.8	278.746	
531.860		19889.4		15343.7	7435.69	3026.03	19753.3	136.063	
531.840		19912.8		15595.2	7264.13	3020.99	19838.3	74.4895	
531.820		20136.9		15835.7	7098.03	3015.93	19917.8	219.130	
531.800		20100.3		16064.1	6937.35	3010.85	19990.6	109.702	
531.780		20107.8		16279.6	6782.03	3005.75	20055.8	51.9148	
531.760		20382.2		16481.1	6632.02	3000.64	20112.5	269.702	
531.740		20031.7		16667.8	6487.24	2995.51	20159.5	-127.759	
531.720		19826.8		16838.8	6347.60	2990.38	20196.0	-369.247	
531.700		19644.1		16993.4	6213.03	2985.24	20221.2	-577.093	
531.680		20078.6		17131.0	6083.41	2980.10	20234.3	-155.683	
531.660		19924.3		17250.8	5958.65	2974.97	20234.4	-310.182	
531.640		19871.1		17352.2	5838.63	2969.84	20221.0	-349.921	
531.620		20030.3		17434.9	5723.23	2964.72	20193.4	-163.116	
531.600		20178.1		17498.4	5612.34	2959.61	20151.1	26.9480	
531.580		20347.0		17542.4	5505.84	2954.52	20093.7	253.299	
531.560		19992.0		17566.6	5403.59	2949.45	20020.8	-28.7851	
531.540		19874.5		17571.0	5305.47	2944.39	19932.1	-57.5964	
531.520		19978.3		17555.6	5211.34	2939.37	19827.5	150.746	
531.500		19550.7		17520.2	5121.09	2934.37	19706.9	-156.264	
531.480		19232.3		17465.2	5034.59	2929.42	19570.4	-338.100	
531.460		19183.1		17390.7	4951.70	2924.50	19417.9	-234.795	
531.440		19300.6		17297.1	4872.29	2919.62	19249.7	50.8498	
531.420		19269.4		17184.7	4796.23	2914.78	19066.1	203.293	
531.400		18810.4		17054.1	4723.40	2909.99	18867.5	-57.0893	
531.380		18555.4		16905.8	4653.67	2905.25	18654.2	-98.7669	
531.360		18637.7		16740.4	4586.91	2900.55	18426.8	210.934	
531.340		18359.9		16558.8	4523.02	2895.91	18185.9	173.994	
531.320		18168.1		16361.7	4461.88	2891.34	17932.2	235.929	
531.300		17862.3		16149.8	4403.38	2886.84	17666.3	195.938	
531.280		17412.1		15924.2	4347.40	2882.40	17389.2	22.9546	
531.260		17084.5		15685.6	4293.83	2878.04	17101.4	-16.8821	
531.240		16694.1		15435.2	4242.58	2873.75	16804.1	-109.944	
531.220		16426.6		15173.9	4193.54	2869.54	16497.9	-71.3358	
531.200		16373.1		14902.7	4146.60	2865.40	16183.9	189.199	
531.180		16049.0		14622.7	4101.68	2861.34	15863.0	185.944	
531.160		16096.7		14334.9	4058.69	2857.37	15536.2	560.480	
531.140		15618.2		14040.4	4017.54	2853.48	15204.5	413.760	
531.120		15155.2		13740.3	3978.14	2849.68	14868.7	286.466	
531.100		14560.7		13435.5	3940.42	2845.97	14530.0	30.7224	
531.080		14628.1		13127.2	3904.30	2842.35	14189.1	439.034	
531.060		14362.3		12816.2	3869.70	2838.83	13847.1	515.214	
531.040		13928.1		12503.7	3836.56	2835.40	13504.9	423.278	
531.020		13392.8		12190.5	3804.81	2832.07	13163.3	229.518	
531.000		13307.9		11877.6	3774.39	2828.84	12823.2	484.743	
530.980		13028.6		11565.8	3745.22	2825.71	12485.3	543.316	
530.960		12655.9		11256.0	3717.24	2822.67	12150.5	505.371	
530.940		12291.8		10948.8	3690.41	2819.72	11819.5	472.229	
530.920		11869.9		10645.2	3664.67	2816.86	11493.0	376.901	
530.900		11626.7		10345.6	3639.96	2814.10	11171.5	455.142	
530.880		11265.4		10050.9	3616.24	2811.43	10855.7	409.682	
530.860		10824.9		9761.42	3593.47	2808.86	10546.0	278.872	
530.840		10373.9		9477.81	3571.59	2806.38	10243.0	130.841	
530.820		9985.42		9200.50	3550.57	2803.99	9947.08	38.3431	
530.800		9731.61		8929.90	3530.36	2801.69	9658.57	73.0350	
530.780		9431.20		8666.36	3510.94	2799.49	9377.82	53.3839	
530.760		9139.94		8410.19	3492.26	2797.37	9105.08	34.8624	
530.740		8941.86		8161.62	3474.28	2795.33	8840.57	101.289	
530.720		8730.35		7920.87	3456.98	2793.39	8584.47	145.878	
530.700		8483.11		7688.09	3440.33	2791.52	8336.90	146.211	
530.680		8406.51		7463.38	3424.29	2789.73	8097.93	308.573	
530.660		8009.49		7246.81	3408.83	2788.02	7867.62	141.872	
530.640		7739.95		7038.41	3393.93	2786.38	7645.95	93.9982	
530.620		7599.61		6838.17	3379.56	2784.82	7432.91	166.698	
530.600		7214.03		6646.05	3365.70	2783.33	7228.43	-14.3988	
530.580		6961.36		6461.98	3352.33	2781.91	7032.40	-71.0466	
530.560		6744.41		6285.84	3339.42	2780.55	6844.71	-100.301	
530.540		6584.35		6117.51	3326.96	2779.25	6665.21	-80.8622	
530.520		6387.70		5956.83	3314.91	2778.01	6493.73	-106.029	
530.500		6329.67		5803.64	3303.26	2776.83	6330.07	-0.399363	
530.480		6190.19		5657.75	3292.00	2775.70	6174.05	16.1421	
530.460		6046.13		5518.95	3281.11	2774.63	6025.43	20.7006	
530.440		5907.22		5387.04	3270.56	2773.60	5884.00	23.2247	
530.420		5719.43		5261.77	3260.36	2772.63	5749.50	-30.0700	
530.400		5610.82		5142.93	3250.48	2771.71	5621.70	-10.8891	
530.380		5311.84		5030.27	3240.92	2770.83	5500.36	-188.517	
530.360		5074.89		4923.55	3231.64	2770.00	5385.20	-310.310	
530.340		5120.91		4822.53	3222.66	2769.21	5275.97	-155.068	
530.320		4905.10		4726.95	3213.94	2768.46	5172.43	-267.325	
530.300		4860.23		4636.57	3205.48	2767.75	5074.31	-214.079	
530.280		4736.47		4551.15	3197.27	2767.07	4981.36	-244.893	
530.260		4627.85		4470.45	3189.30	2766.42	4893.34	-265.484	
530.240		4525.52		4394.24	3181.56	2765.81	4809.99	-284.470	
530.220		4551.53		4322.29	3174.04	2765.23	4731.10	-179.566	
530.200		4337.16		4254.37	3166.73	2764.68	4656.42	-319.260	
530.180		4201.97		4190.27	3159.62	2764.16	4585.74	-383.772	
530.160		4076.49		4129.78	3152.71	2763.66	4518.83	-442.341	
530.140		4163.95		4072.70	3145.99	2763.20	4455.49	-291.536	
530.120		4077.06		4018.83	3139.44	2762.76	4395.51	-318.454	
530.100		3931.86		3967.99	3133.06	2762.34	4338.71	-406.853	
530.080		3959.58		3919.99	3126.85	2761.94	4284.90	-325.315	
530.060		3909.56		3874.66	3120.79	2761.55	4233.90	-324.336	
530.040		3720.06		3831.86	3114.88	2761.19	4185.55	-465.489	
530.020		3708.63		3791.41	3109.12	2760.84	4139.69	-431.061	
530.000		3582.58		3753.19	3103.49	2760.52	4096.17	-513.589	
529.980		3694.05		3717.04	3098.00	2760.20	4054.84	-360.791	
529.960		3635.74		3682.85	3092.63	2759.90	4015.58	-379.837	
529.940		3659.18		3650.48	3087.39	2759.62	3978.25	-319.072	
529.920		3518.26		3619.82	3082.26	2759.34	3942.74	-424.475	
529.900		3509.69		3590.77	3077.24	2759.08	3908.93	-399.243	
529.880		3536.84		3563.22	3072.33	2758.83	3876.72	-339.879	
529.860		3507.97		3537.08	3067.52	2758.59	3846.01	-338.038	
529.840		3521.69		3512.25	3062.82	2758.36	3816.71	-295.018	
529.820		3445.95		3488.67	3058.20	2758.14	3788.73	-342.782	
529.800		3319.61		3466.24	3053.68	2757.93	3761.99	-442.374	
529.780		3375.64		3444.89	3049.24	2757.72	3736.41	-360.771	
529.760		3392.50		3424.56	3044.88	2757.53	3711.91	-319.415	
529.740		3353.34		3405.19	3040.60	2757.34	3688.45	-335.104	
529.720		3399.36		3386.71	3036.39	2757.16	3665.94	-266.577	
529.700		3252.73		3369.06	3032.25	2756.98	3644.33	-391.603	
529.680		3320.47		3352.21	3028.18	2756.81	3623.58	-303.106	
529.660		3293.32		3336.10	3024.17	2756.64	3603.62	-310.303	
529.640		3180.70		3320.68	3020.22	2756.48	3584.41	-403.713	
529.620		3027.78		3305.92	3016.33	2756.33	3565.91	-538.131	
529.600		3191.56		3291.77	3012.49	2756.18	3548.08	-356.518	
529.580		3261.02		3278.21	3008.70	2756.04	3530.88	-269.856	
529.560		3186.99		3265.20	3004.97	2755.90	3514.26	-327.273	
529.540		3202.42		3252.70	3001.27	2755.77	3498.21	-295.784	
529.520		3198.42		3240.69	2997.62	2755.64	3482.68	-284.253	
529.500		3057.51		3229.14	2994.01	2755.51	3467.64	-410.130	
529.480		3081.52		3218.03	2990.43	2755.39	3453.07	-371.553	
529.460		3142.11		3207.33	2986.89	2755.27	3438.95	-296.835	
529.440		3215.00		3197.02	2983.38	2755.16	3425.25	-210.246	
529.420		3084.38		3187.08	2979.90	2755.05	3411.94	-327.561	
529.400		3132.11		3177.50	2976.45	2754.94	3399.00	-266.893	
529.380		3045.79		3168.24	2973.02	2754.84	3386.42	-340.635	
529.360		2984.62		3159.31	2969.62	2754.74	3374.18	-389.557	
529.340		3019.78		3150.67	2966.23	2754.65	3362.25	-342.471	
529.320		3058.65		3142.32	2962.86	2754.55	3350.62	-291.969	
529.300		3164.98		3134.23	2959.50	2754.46	3339.28	-174.296	
529.280		3117.25		3126.41	2956.16	2754.37	3328.20	-210.955	
529.260		3034.36		3118.83	2952.84	2754.29	3317.38	-283.027	
529.240		2869.72		3111.49	2949.52	2754.21	3306.81	-437.091	
529.220		2939.75		3104.37	2946.22	2754.13	3296.46	-356.717	
529.200		3046.08		3097.46	2942.92	2754.05	3286.34	-240.260	
529.180		3028.64		3090.76	2939.63	2753.98	3276.41	-247.774	
529.160		2916.31		3084.24	2936.35	2753.90	3266.69	-350.379	
529.140		2991.77		3077.91	2933.07	2753.83	3257.15	-265.379	
529.120		2929.17		3071.75	2929.79	2753.76	3247.78	-318.610	
529.100		2871.43		3065.76	2926.52	2753.70	3238.58	-367.148	
529.080		3094.09		3059.92	2923.25	2753.63	3229.54	-135.446	
529.060		2958.04		3054.24	2919.98	2753.57	3220.65	-262.610	
529.040		2803.41		3048.69	2916.71	2753.50	3211.90	-408.496	
529.020		2862.86		3043.29	2913.45	2753.44	3203.29	-340.433	
529.000		2916.31		3038.01	2910.19	2753.39	3194.81	-278.503	
528.980		2994.63		3032.86	2906.93	2753.34	3186.46	-191.829	
528.960		2885.15		3027.82	2903.68	2753.28	3178.21	-293.057	
528.940		2992.63		3022.88	2900.42	2753.23	3170.08	-177.451	
528.920		3042.07		3018.05	2897.17	2753.18	3162.05	-119.973	
528.900		2982.91		3013.32	2893.93	2753.13	3154.12	-171.208	
528.880		2941.75		3008.68	2890.68	2753.08	3146.28	-204.531	
528.860		2847.71		3004.12	2887.45	2753.04	3138.53	-290.822	
528.840		2847.14		2999.64	2884.22	2752.99	3130.87	-283.731	
528.820		2893.73		2995.23	2881.00	2752.95	3123.29	-229.558	
528.800		2849.14		2990.90	2877.79	2752.90	3115.78	-266.643	
528.780		2838.28		2986.62	2874.59	2752.86	3108.35	-270.072	
528.760		2854.28		2982.41	2871.40	2752.82	3100.99	-246.702	
528.740		2929.46		2978.25	2868.22	2752.78	3093.69	-164.231	
528.720		2819.70		2974.13	2865.06	2752.74	3086.45	-266.755	
528.700		2882.58		2970.06	2861.92	2752.70	3079.28	-196.702	
528.680		2976.05		2966.04	2858.80	2752.66	3072.17	-96.1222	
528.660		2695.94		2962.04	2855.70	2752.63	3065.11	-369.178	
528.640		2862.00		2958.09	2852.62	2752.60	3058.11	-196.110	
528.620		2925.46		2954.15	2849.57	2752.56	3051.16	-125.706	
528.600		2818.27		2950.25	2846.55	2752.53	3044.26	-225.993	
528.580		2910.31		2946.36	2843.55	2752.50	3037.41	-127.105	
528.560		2897.73		2942.49	2840.59	2752.46	3030.61	-132.878	
528.540		2798.26		2938.63	2837.65	2752.43	3023.85	-225.591	
528.520		2826.27		2934.79	2834.76	2752.40	3017.14	-190.870	
528.500		2818.27		2930.96	2831.90	2752.37	3010.48	-192.211	
528.480		2773.68		2927.13	2829.08	2752.34	3003.86	-230.183	
528.460		2834.85		2923.31	2826.30	2752.31	2997.29	-162.444	
528.440		2829.70		2919.49	2823.56	2752.28	2990.77	-161.062	
528.420		2890.30		2915.67	2820.86	2752.24	2984.28	-93.9851	
528.400		2990.91		2911.85	2818.21	2752.21	2977.85	13.0581	
528.380		2870.01		2908.04	2815.61	2752.18	2971.47	-101.463	
528.360		2876.29		2904.22	2813.06	2752.15	2965.13	-88.8391	
528.340		2821.70		2900.41	2810.56	2752.11	2958.85	-137.149	
528.320		2839.99		2896.59	2808.11	2752.08	2952.62	-112.625	
528.300		2803.98		2892.78	2805.71	2752.05	2946.44	-142.464	
528.280		2749.10		2888.97	2803.37	2752.01	2940.32	-191.225	
528.260		2863.15		2885.16	2801.09	2751.98	2934.27	-71.1222	
528.240		2965.19		2881.36	2798.86	2751.95	2928.27	36.9150	
528.220		2978.91		2877.56	2796.69	2751.91	2922.34	56.5670	
528.200		2893.44		2873.78	2794.58	2751.88	2916.47	-23.0317	
528.180		2825.13		2870.00	2792.52	2751.84	2910.68	-85.5518	
528.160		2835.13		2866.24	2790.53	2751.81	2904.96	-69.8271	
528.140		2934.03		2862.50	2788.59	2751.77	2899.32	34.7125	
528.120		2894.59		2858.77	2786.72	2751.74	2893.76	0.827609	
528.100		2866.86		2855.08	2784.91	2751.71	2888.29	-21.4244	
528.080		2871.43		2851.41	2783.16	2751.67	2882.90	-11.4651	
528.060		2864.57		2847.77	2781.47	2751.64	2877.60	-13.0298	
528.040		2780.83		2844.17	2779.85	2751.61	2872.40	-91.5769	
528.020		2925.74		2840.61	2778.28	2751.58	2867.30	58.4415	
528.000		2889.44		2837.08	2776.77	2751.55	2862.30	27.1445	
527.980		2763.68		2833.60	2775.31	2751.52	2857.40	-93.7212	
527.960		2812.55		2830.18	2773.92	2751.49	2852.61	-40.0545	
527.940		2994.05		2826.80	2772.59	2751.46	2847.93	146.125	
527.920		2846.00		2823.49	2771.31	2751.43	2843.37	2.62974	
527.900		2755.39		2820.24	2770.09	2751.41	2838.92	-83.5298	
527.880		2702.51		2817.05	2768.92	2751.38	2834.59	-132.078	
527.860		2880.29		2813.93	2767.81	2751.36	2830.38	49.9137	
527.840		2819.41		2810.89	2766.75	2751.34	2826.30	-6.88491	
527.820		2815.41		2807.91	2765.75	2751.32	2822.34	-6.92824	
527.800		2807.98		2805.02	2764.79	2751.30	2818.51	-10.5258	
527.780		2820.56		2802.20	2763.88	2751.28	2814.80	5.75980	
527.760		2832.56		2799.46	2763.01	2751.26	2811.21	21.3482	
527.740		2822.84		2796.80	2762.19	2751.23	2807.76	15.0857	
527.720		2850.57		2794.23	2761.41	2751.21	2804.43	46.1373	
527.700		2737.09		2791.74	2760.68	2751.19	2801.23	-64.1388	
527.680		2811.12		2789.35	2759.99	2751.17	2798.17	12.9594	
527.660		2769.68		2787.04	2759.34	2751.16	2795.22	-25.5456	
527.640		2697.36		2784.83	2758.73	2751.14	2792.41	-95.0468	
527.620		2738.81		2782.70	2758.15	2751.12	2789.72	-50.9119	
527.600		2779.68		2780.66	2757.60	2751.11	2787.15	-7.46991	
527.580		2930.31		2778.70	2757.09	2751.09	2784.71	145.608	
527.560		2972.90		2776.84	2756.61	2751.07	2782.38	190.524	
527.540		2901.16		2775.06	2756.16	2751.05	2780.17	120.992	
527.520		2884.87		2773.37	2755.74	2751.03	2778.07	106.796	
527.500		2765.11		2771.76	2755.34	2751.01	2776.09	-10.9791	
527.480		2699.37		2770.23	2754.97	2750.99	2774.21	-74.8420	
527.460		2663.35		2768.79	2754.63	2750.97	2772.44	-109.086	
527.440		2852.86		2767.42	2754.31	2750.96	2770.77	82.0853	
527.420		2762.53		2766.13	2754.01	2750.94	2769.20	-6.66791	
527.400		2827.70		2764.92	2753.72	2750.92	2767.73	59.9757	
527.380		2853.43		2763.78	2753.46	2750.90	2766.34	87.0830	
527.360		2820.27		2762.71	2753.22	2750.88	2765.05	55.2220	
527.340		2789.12		2761.70	2752.99	2750.85	2763.84	25.2774	
527.320		2885.73		2760.77	2752.78	2750.83	2762.71	123.017	
527.300		2829.13		2759.89	2752.58	2750.81	2761.66	67.4749	
527.280		2962.90		2759.07	2752.40	2750.79	2760.68	202.219	
527.260		2815.98		2758.32	2752.23	2750.77	2759.77	56.2087	
527.240		2691.08		2757.62	2752.07	2750.75	2758.94	-67.8600	
527.220		2771.11		2756.96	2751.93	2750.74	2758.16	12.9480	
527.200		2813.13		2756.36	2751.80	2750.72	2757.44	55.6829	
527.180		2955.75		2755.80	2751.67	2750.69	2756.78	198.976	
527.160		2787.69		2755.28	2751.55	2750.67	2756.17	31.5211	
527.140		2774.82		2754.81	2751.44	2750.65	2755.60	19.2223	
527.120		2779.68		2754.37	2751.34	2750.63	2755.08	24.5985	
527.100		2809.41		2753.97	2751.25	2750.60	2754.61	54.7987	
527.080		2864.57		2753.60	2751.16	2750.58	2754.18	110.398	
527.060		2831.42		2753.26	2751.08	2750.56	2753.78	77.6398	
527.040		2857.43		2752.95	2751.00	2750.54	2753.42	104.012	
527.020		2817.70		2752.67	2750.93	2750.52	2753.09	64.6119	
527.000		2785.40		2752.42	2750.87	2750.50	2752.79	32.6116	
526.980		2816.27		2752.19	2750.81	2750.48	2752.52	63.7522	
526.960		2815.13		2751.97	2750.76	2750.46	2752.27	62.8560	
526.940		2920.60		2751.78	2750.71	2750.44	2752.05	168.550	
526.920		2757.96		2751.61	2750.66	2750.42	2751.85	6.11518	
526.900		2787.11		2751.46	2750.62	2750.41	2751.66	35.4513	
526.880		2834.56		2751.31	2750.58	2750.39	2751.50	83.0638	
526.860		2826.85		2751.19	2750.54	2750.37	2751.35	75.4962	
526.840		2850.00		2751.07	2750.50	2750.36	2751.21	98.7837	
526.820		2778.83		2750.96	2750.47	2750.34	2751.09	27.7359	
526.800		2753.10		2750.87	2750.43	2750.32	2750.98	2.12241	
526.780		2805.12		2750.78	2750.40	2750.30	2750.88	54.2446	
526.760		2790.54		2750.70	2750.37	2750.28	2750.79	39.7581	
526.740		2766.54		2750.63	2750.34	2750.27	2750.70	15.8304	
526.720		2688.79		2750.56	2750.32	2750.25	2750.63	-61.8410	
526.700		2730.81		2750.50	2750.29	2750.23	2750.56	-19.7559	
526.680		2878.87		2750.45	2750.27	2750.21	2750.50	128.365	
526.660		2846.57		2750.40	2750.24	2750.20	2750.45	96.1205	
526.640		2816.84		2750.36	2750.22	2750.18	2750.40	66.4432	
526.620		2778.83		2750.32	2750.20	2750.17	2750.35	28.4716	
526.600		2889.44		2750.28	2750.19	2750.15	2750.31	139.127	
526.580		2813.13		2750.25	2750.17	2750.14	2750.28	62.8461	
526.560		2896.02		2750.22	2750.15	2750.13	2750.25	145.767	
526.540		2760.53		2750.20	2750.14	2750.12	2750.22	10.3116	
526.520		2799.12		2750.18	2750.13	2750.11	2750.20	48.9227	
526.500		2751.96		2750.16	2750.12	2750.10	2750.18	1.78173	
526.480		2912.02		2750.14	2750.11	2750.09	2750.16	161.864	
526.460		2793.40		2750.13	2750.10	2750.09	2750.14	43.2634	
526.440		2701.37		2750.11	2750.09	2750.08	2750.12	-48.7558	
526.420		2745.67		2750.10	2750.08	2750.07	2750.11	-4.43637	
526.400		2703.08		2750.09	2750.07	2750.06	2750.09	-47.0126	
526.380		2804.55		2750.07	2750.06	2750.05	2750.08	54.4691	
526.360		2780.54		2750.06	2750.05	2750.04	2750.07	30.4725	
526.340		2708.23		2750.05	2750.04	2750.04	2750.06	-41.8291	
526.320		2674.21		2750.04	2750.03	2750.03	2750.04	-75.8304	
526.300		2700.51		2750.03	2750.02	2750.02	2750.03	-49.5232	
526.280		2690.22		2750.02	2750.02	2750.01	2750.02	-59.8057	
526.260		2757.67		2750.02	2750.01	2750.01	2750.02	7.65591	
526.240		2825.70		2750.01	2750.01	2750.01	2750.01	75.6880	
526.220		2778.25		2750.01	2750.00	2750.00	2750.01	28.2446	
526.200		2691.93		2750.01	2750.00	2750.00	2750.01	-58.0732	
526.180		2648.49		2750.00	2750.00	2750.00	2750.00	-101.516	
526.160		2944.89		2750.00	2750.00	2749.99	2750.00	194.894	
526.140		2914.31		2749.99	2749.99	2749.99	2749.99	164.316	
526.120		2836.85		2749.99	2749.99	2749.98	2749.99	86.8620	
526.100		2875.72		2749.98	2749.98	2749.98	2749.98	125.740	
526.080		2736.52		2749.98	2749.98	2749.97	2749.98	-13.4535	
526.060		2628.48		2749.97	2749.97	2749.97	2749.97	-121.492	
526.040		2691.65		2749.97	2749.97	2749.97	2749.97	-58.3195	
526.020		2719.37		2749.96	2749.96	2749.96	2749.96	-30.5889	
526.000		2719.66		2749.95	2749.95	2749.95	2749.95	-30.2957	
525.980		2787.69		2749.95	2749.95	2749.95	2749.95	37.7402	
525.960		2880.87		2749.94	2749.94	2749.94	2749.94	130.928	
525.940		2913.17		2749.93	2749.93	2749.93	2749.93	163.233	
525.920		2735.09		2749.93	2749.93	2749.92	2749.93	-14.8313	
525.900		2707.94		2749.92	2749.92	2749.92	2749.92	-41.9774	
525.880		2830.27		2749.91	2749.91	2749.91	2749.91	80.3627	
525.860		2701.94		2749.91	2749.91	2749.91	2749.91	-47.9704	
525.840		2681.07		2749.90	2749.90	2749.90	2749.91	-68.8326	
525.820		2719.66		2749.90	2749.90	2749.90	2749.90	-30.2426	
525.800		2746.81		2749.90	2749.90	2749.90	2749.90	-3.08572	
525.780		2869.15		2749.89	2749.89	2749.89	2749.89	119.253	
525.760		2862.29		2749.89	2749.89	2749.89	2749.89	112.398	
525.740		2750.53		2749.89	2749.89	2749.89	2749.89	0.643494	
525.720		2701.65		2749.88	2749.88	2749.88	2749.88	-48.2275	
525.700		2676.50		2749.87	2749.87	2749.87	2749.87	-73.3734	
525.680		2731.38		2749.87	2749.87	2749.87	2749.87	-18.4879	
525.660		2778.25		2749.86	2749.86	2749.86	2749.86	28.3923	
525.640		2783.40		2749.86	2749.86	2749.86	2749.86	33.5418	
525.620		2785.11		2749.85	2749.85	2749.85	2749.85	35.2621	
525.600		2864.57		2749.85	2749.85	2749.85	2749.85	114.728	
525.580		2738.24		2749.84	2749.84	2749.84	2749.84	-11.6023	
525.560		2721.66		2749.83	2749.83	2749.83	2749.83	-28.1737	
525.540		2709.94		2749.82	2749.82	2749.82	2749.82	-39.8837	
525.520		2732.81		2749.82	2749.82	2749.82	2749.82	-17.0077	
525.500		2808.55		2749.81	2749.81	2749.81	2749.81	58.7467	
525.480		2892.87		2749.80	2749.80	2749.80	2749.80	143.074	
525.460		2826.85		2749.79	2749.79	2749.79	2749.79	77.0552	
525.440		2744.53		2749.78	2749.78	2749.78	2749.78	-5.25667	
525.420		2759.10		2749.78	2749.78	2749.78	2749.78	9.32748	
525.400		2762.53		2749.77	2749.77	2749.77	2749.77	12.7647	
525.380		2829.99		2749.76	2749.76	2749.76	2749.76	80.2276	
525.360		2779.97		2749.75	2749.75	2749.75	2749.75	30.2149	
525.340		2721.66		2749.75	2749.75	2749.75	2749.75	-28.0872	
525.320		2907.16		2749.74	2749.74	2749.74	2749.74	157.421	
525.300		2803.69		2749.74	2749.74	2749.74	2749.74	53.9564	
525.280		2882.58		2749.73	2749.73	2749.73	2749.73	132.850	
525.260		2732.52		2749.72	2749.72	2749.72	2749.72	-17.2025	
525.240		2658.49		2749.72	2749.72	2749.72	2749.72	-91.2234	
525.220		2671.64		2749.71	2749.71	2749.71	2749.71	-78.0669	
525.200		2684.50		2749.70	2749.70	2749.70	2749.70	-65.1977	
525.180		2759.68		2749.69	2749.69	2749.69	2749.69	9.98134	
525.160		2786.54		2749.69	2749.69	2749.69	2749.69	36.8557	
525.140		2786.54		2749.68	2749.68	2749.68	2749.68	36.8624	
525.120		2746.53		2749.67	2749.67	2749.67	2749.67	-3.14681	
525.100		2760.25		2749.67	2749.67	2749.67	2749.67	10.5788	
525.080		2692.79		2749.66	2749.66	2749.66	2749.66	-56.8711	
525.060		2745.10		2749.66	2749.66	2749.66	2749.66	-4.55793	
525.040		2846.85		2749.65	2749.65	2749.65	2749.65	97.2008	
525.020		2874.01		2749.65	2749.65	2749.65	2749.65	124.357	
525.000		2865.15		2759.85	2759.85	2759.85	2759.85	105.295	
